File: bi1   18.02.20  02:54:24
Comment: bi1
                    P1Y374-L                                P1Y373-R                                
Time[secs]          Force[N]            Time[secs]          Force[N]            
       0.000         429.030                   0.000         600.000            
       0.005         423.360                   0.005         592.800            
       0.010         419.580                   0.010         590.400            
       0.015         427.140                   0.015         578.400            
       0.020         423.360                   0.020         573.600            
       0.025         427.140                   0.025         571.200            
       0.030         427.140                   0.030         556.800            
       0.035         427.140                   0.035         559.200            
       0.040         430.920                   0.040         556.800            
       0.045         438.480                   0.045         542.400            
       0.050         442.260                   0.050         544.800            
       0.055         446.040                   0.055         540.000            
       0.060         453.600                   0.060         540.000            
       0.065         457.380                   0.065         528.000            
       0.070         472.500                   0.070         528.000            
       0.075         487.050                   0.075         530.400            
       0.080         489.600                   0.080         525.980            
       0.085         502.350                   0.085         528.190            
       0.090         510.000                   0.090         534.820            
       0.095         522.750                   0.095         528.190            
       0.100         530.400                   0.100         523.770            
       0.105         545.700                   0.105         525.980            
       0.110         555.900                   0.110         525.980            
       0.115         568.650                   0.115         530.400            
       0.120         578.850                   0.120         534.820            
       0.125         589.050                   0.125         539.240            
       0.130         601.800                   0.130         541.450            
       0.135         606.900                   0.135         541.450            
       0.140         619.650                   0.140         548.080            
       0.145         637.500                   0.145         552.500            
       0.150         644.960                   0.150         572.500            
       0.155         656.080                   0.155         556.470            
       0.160         667.200                   0.160         563.340            
       0.165         675.540                   0.165         558.760            
       0.170         683.880                   0.170         561.050            
       0.175         692.220                   0.175         558.760            
       0.180         695.000                   0.180         558.760            
       0.185         692.220                   0.185         551.890            
       0.190         695.000                   0.190         551.890            
       0.195         695.000                   0.195         540.440            
       0.200         686.660                   0.200         533.570            
       0.205         689.440                   0.205         526.700            
       0.210         675.540                   0.210         522.120            
       0.215         672.760                   0.215         506.090            
       0.220         658.860                   0.220         496.930            
       0.225         662.500                   0.225         500.000            
       0.230         641.300                   0.230         484.000            
       0.235         633.350                   0.235         472.000            
       0.240         633.350                   0.240         470.000            
       0.245         620.100                   0.245         450.000            
       0.250         617.450                   0.250         440.000            
       0.255         614.800                   0.255         426.000            
       0.260         612.150                   0.260         412.000            
       0.265         604.200                   0.265         406.000            
       0.270         598.900                   0.270         392.000            
       0.275         593.600                   0.275         390.000            
       0.280         596.250                   0.280         384.000            
       0.285         593.600                   0.285         372.000            
       0.290         588.300                   0.290         364.000            
       0.295         596.250                   0.295         362.000            
       0.300         597.740                   0.300         358.600            
       0.305         583.220                   0.305         353.710            
       0.310         585.640                   0.310         352.080            
       0.315         588.060                   0.315         352.080            
       0.320         585.640                   0.320         352.080            
       0.325         592.900                   0.325         348.820            
       0.330         590.480                   0.330         348.820            
       0.335         588.060                   0.335         348.820            
       0.340         590.480                   0.340         356.970            
       0.345         590.480                   0.345         361.860            
       0.350         595.320                   0.350         366.750            
       0.355         605.000                   0.355         376.530            
       0.360         592.900                   0.360         384.680            
       0.365         605.000                   0.365         391.200            
       0.370         605.000                   0.370         407.500            
       0.375         622.500                   0.375         418.320            
       0.380         612.500                   0.380         433.440            
       0.385         622.500                   0.385         446.040            
       0.390         622.500                   0.390         456.120            
       0.395         625.000                   0.395         476.280            
       0.400         620.000                   0.400         491.400            
       0.405         620.000                   0.405         506.520            
       0.410         605.000                   0.410         524.160            
       0.415         617.500                   0.415         546.840            
       0.420         607.500                   0.420         559.440            
       0.425         597.500                   0.425         577.080            
       0.430         585.000                   0.430         584.640            
       0.435         577.500                   0.435         607.320            
       0.440         570.000                   0.440         619.920            
       0.445         555.000                   0.445         630.000            
       0.450         555.000                   0.450         642.600            
       0.455         537.240                   0.455         653.400            
       0.460         521.700                   0.460         656.100            
       0.465         510.600                   0.465         658.800            
       0.470         499.500                   0.470         664.200            
       0.475         486.180                   0.475         669.600            
       0.480         477.300                   0.480         669.600            
       0.485         459.540                   0.485         675.000            
       0.490         452.880                   0.490         675.000            
       0.495         441.780                   0.495         672.300            
       0.500         428.460                   0.500         672.300            
       0.505         419.580                   0.505         669.600            
       0.510         417.360                   0.510         664.200            
       0.515         408.480                   0.515         658.800            
       0.520         404.040                   0.520         658.800            
       0.525         392.500                   0.525         657.500            
       0.530         384.650                   0.530         649.610            
       0.535         379.940                   0.535         646.980            
       0.540         384.650                   0.540         641.720            
       0.545         367.380                   0.545         641.720            
       0.550         359.530                   0.550         636.460            
       0.555         361.100                   0.555         631.200            
       0.560         359.530                   0.560         625.940            
       0.565         359.530                   0.565         625.940            
       0.570         361.100                   0.570         623.310            
       0.575         361.100                   0.575         615.420            
       0.580         359.530                   0.580         620.680            
       0.585         361.100                   0.585         618.050            
       0.590         364.240                   0.590         612.790            
       0.595         372.090                   0.595         604.900            
       0.600         381.480                   0.600         617.500            
       0.605         375.870                   0.605         607.620            
       0.610         387.090                   0.610         605.150            
       0.615         387.090                   0.615         600.210            
       0.620         390.830                   0.620         602.680            
       0.625         398.310                   0.625         597.740            
       0.630         402.050                   0.630         582.920            
       0.635         402.050                   0.635         585.390            
       0.640         417.010                   0.640         585.390            
       0.645         426.360                   0.645         580.450            
       0.650         428.230                   0.650         577.980            
       0.655         439.450                   0.655         577.980            
       0.660         443.190                   0.660         573.040            
       0.665         461.890                   0.665         577.980            
       0.670         467.500                   0.670         573.040            
       0.675         485.460                   0.675         580.000            
       0.680         488.070                   0.680         573.040            
       0.685         506.340                   0.685         568.400            
       0.690         527.220                   0.690         575.360            
       0.695         532.440                   0.695         575.360            
       0.700         550.710                   0.700         573.040            
       0.705         561.150                   0.705         575.360            
       0.710         576.810                   0.710         573.040            
       0.715         592.470                   0.715         580.000            
       0.720         608.130                   0.720         570.720            
       0.725         615.960                   0.725         573.040            
       0.730         634.230                   0.730         575.360            
       0.735         642.060                   0.735         580.000            
       0.740         644.670                   0.740         580.000            
       0.745         652.500                   0.745         580.000            
       0.750         652.500                   0.750         585.000            
       0.755         652.500                   0.755         575.640            
       0.760         649.890                   0.760         573.300            
       0.765         647.280                   0.765         570.960            
       0.770         647.280                   0.770         570.960            
       0.775         642.060                   0.775         566.280            
       0.780         629.010                   0.780         554.580            
       0.785         629.010                   0.785         542.880            
       0.790         623.790                   0.790         535.860            
       0.795         613.350                   0.795         533.520            
       0.800         602.910                   0.800         521.820            
       0.805         600.300                   0.805         512.460            
       0.810         592.470                   0.810         503.100            
       0.815         592.470                   0.815         498.420            
       0.820         579.420                   0.820         491.400            
       0.825         580.000                   0.825         492.500            
       0.830         570.720                   0.830         484.620            
       0.835         559.120                   0.835         478.710            
       0.840         561.440                   0.840         474.770            
       0.845         552.160                   0.845         474.770            
       0.850         549.840                   0.850         470.830            
       0.855         549.840                   0.855         468.860            
       0.860         545.200                   0.860         470.830            
       0.865         540.560                   0.865         466.890            
       0.870         535.920                   0.870         466.890            
       0.875         531.280                   0.875         468.860            
       0.880         531.280                   0.880         470.830            
       0.885         531.280                   0.885         466.890            
       0.890         526.640                   0.890         468.860            
       0.895         528.960                   0.895         474.770            
       0.900         530.000                   0.900         481.750            
       0.905         517.280                   0.905         477.050            
       0.910         519.400                   0.910         484.100            
       0.915         517.280                   0.915         484.100            
       0.920         513.040                   0.920         486.450            
       0.925         521.520                   0.925         498.200            
       0.930         510.920                   0.930         502.900            
       0.935         508.800                   0.935         512.300            
       0.940         504.560                   0.940         524.050            
       0.945         502.440                   0.945         531.100            
       0.950         508.800                   0.950         542.850            
       0.955         508.800                   0.955         564.000            
       0.960         506.680                   0.960         559.300            
       0.965         504.560                   0.965         568.700            
       0.970         502.440                   0.970         587.500            
       0.975         512.500                   0.975         597.840            
       0.980         502.250                   0.980         603.480            
       0.985         494.050                   0.985         614.760            
       0.990         489.950                   0.990         620.400            
       0.995         489.950                   0.995         626.040            
       1.000         485.850                   1.000         637.320            
       1.005         481.750                   1.005         648.600            
       1.010         471.500                   1.010         654.240            
       1.015         467.400                   1.015         665.520            
       1.020         467.400                   1.020         671.160            
       1.025         459.200                   1.025         676.800            
       1.030         453.050                   1.030         682.440            
       1.035         446.900                   1.035         693.720            
       1.040         448.950                   1.040         705.000            
       1.045         440.750                   1.045         705.000            
       1.050         447.500                   1.050         722.240            
       1.055         431.390                   1.055         722.240            
       1.060         429.600                   1.060         725.200            
       1.065         429.600                   1.065         728.160            
       1.070         417.070                   1.070         731.120            
       1.075         411.700                   1.075         731.120            
       1.080         417.070                   1.080         734.080            
       1.085         404.540                   1.085         740.000            
       1.090         392.010                   1.090         734.080            
       1.095         393.800                   1.095         737.040            
       1.100         388.430                   1.100         734.080            
       1.105         381.270                   1.105         740.000            
       1.110         379.480                   1.110         740.000            
       1.115         372.320                   1.115         734.080            
       1.120         368.740                   1.120         725.200            
       1.125         380.000                   1.125         730.000            
       1.130         364.800                   1.130         724.160            
       1.135         364.800                   1.135         718.320            
       1.140         358.720                   1.140         712.480            
       1.145         358.720                   1.145         712.480            
       1.150         358.720                   1.150         709.560            
       1.155         354.160                   1.155         697.880            
       1.160         349.600                   1.160         694.960            
       1.165         354.160                   1.165         686.200            
       1.170         358.720                   1.170         689.120            
       1.175         354.160                   1.175         686.200            
       1.180         351.120                   1.180         680.360            
       1.185         351.120                   1.185         677.440            
       1.190         358.720                   1.190         677.440            
       1.195         361.760                   1.195         668.680            
       1.200         374.400                   1.200         677.500            
       1.205         374.400                   1.205         669.370            
       1.210         382.200                   1.210         658.530            
       1.215         391.950                   1.215         658.530            
       1.220         403.650                   1.220         661.240            
       1.225         413.400                   1.225         655.820            
       1.230         423.150                   1.230         644.980            
       1.235         429.000                   1.235         647.690            
       1.240         440.700                   1.240         636.850            
       1.245         448.500                   1.245         642.270            
       1.250         456.300                   1.250         631.430            
       1.255         464.100                   1.255         628.720            
       1.260         471.900                   1.260         631.430            
       1.265         487.500                   1.265         623.300            
       1.270         487.500                   1.270         615.170            
       1.275         497.280                   1.275         624.960            
       1.280         492.800                   1.280         614.880            
       1.285         501.760                   1.285         609.840            
       1.290         510.720                   1.290         604.800            
       1.295         517.440                   1.295         604.800            
       1.300         524.160                   1.300         604.800            
       1.305         528.640                   1.305         604.800            
       1.310         535.360                   1.310         612.360            
       1.315         544.320                   1.315         612.360            
       1.320         548.800                   1.320         614.880            
       1.325         553.280                   1.325         617.400            
       1.330         555.520                   1.330         612.360            
       1.335         560.000                   1.335         619.920            
       1.340         553.280                   1.340         624.960            
       1.345         546.560                   1.345         630.000            
       1.350         560.000                   1.350         629.970            
       1.355         546.560                   1.355         627.440            
       1.360         544.320                   1.360         624.910            
       1.365         544.320                   1.365         627.440            
       1.370         542.080                   1.370         632.500            
       1.375         533.120                   1.375         627.440            
       1.380         526.400                   1.380         627.440            
       1.385         524.160                   1.385         624.910            
       1.390         519.680                   1.390         619.850            
       1.395         517.440                   1.395         617.320            
       1.400         512.960                   1.400         622.380            
       1.405         521.920                   1.405         614.790            
       1.410         510.720                   1.410         619.850            
       1.415         512.960                   1.415         609.730            
       1.420         512.960                   1.420         607.200            
       1.425         522.500                   1.425         615.000            
       1.430         509.960                   1.430         605.000            
       1.435         512.050                   1.435         605.000            
       1.440         505.780                   1.440         607.500            
       1.445         514.140                   1.445         605.000            
       1.450         505.780                   1.450         605.000            
       1.455         505.780                   1.455         612.500            
       1.460         509.960                   1.460         610.000            
       1.465         512.050                   1.465         625.000            
       1.470         501.600                   1.470         625.000            
       1.475         501.600                   1.475         622.500            
       1.480         497.420                   1.480         615.000            
       1.485         497.420                   1.485         620.000            
       1.490         501.600                   1.490         625.000            
       1.495         501.600                   1.495         622.500            
       1.500         505.000                   1.500         617.500            
       1.505         488.840                   1.505         605.150            
       1.510         488.840                   1.510         602.680            
       1.515         490.860                   1.515         602.680            
       1.520         490.860                   1.520         597.740            
       1.525         488.840                   1.525         597.740            
       1.530         486.820                   1.530         587.860            
       1.535         486.820                   1.535         587.860            
       1.540         480.760                   1.540         587.860            
       1.545         480.760                   1.545         592.800            
       1.550         476.720                   1.550         590.330            
       1.555         478.740                   1.555         587.860            
       1.560         486.820                   1.560         595.270            
       1.565         484.800                   1.565         597.740            
       1.570         480.760                   1.570         600.210            
       1.575         496.470                   1.575         606.900            
       1.580         492.450                   1.580         604.350            
       1.585         488.430                   1.585         612.000            
       1.590         478.380                   1.590         612.000            
       1.595         494.460                   1.595         612.000            
       1.600         494.460                   1.600         612.000            
       1.605         494.460                   1.605         614.550            
       1.610         496.470                   1.610         617.100            
       1.615         498.480                   1.615         617.100            
       1.620         496.470                   1.620         624.750            
       1.625         498.480                   1.625         622.200            
       1.630         502.500                   1.630         629.850            
       1.635         502.500                   1.635         624.750            
       1.640         498.480                   1.640         634.950            
       1.645         496.470                   1.645         637.500            
       1.650         500.000                   1.650         657.500            
       1.655         496.000                   1.655         646.980            
       1.660         496.000                   1.660         649.610            
       1.665         496.000                   1.665         652.240            
       1.670         494.000                   1.670         652.240            
       1.675         500.000                   1.675         657.500            
       1.680         490.000                   1.680         652.240            
       1.685         490.000                   1.685         657.500            
       1.690         486.000                   1.690         654.870            
       1.695         492.000                   1.695         657.500            
       1.700         486.000                   1.700         652.240            
       1.705         482.000                   1.705         649.610            
       1.710         494.000                   1.710         657.500            
       1.715         486.000                   1.715         646.980            
       1.720         490.000                   1.720         644.350            
       1.725         495.000                   1.725         647.500            
       1.730         483.120                   1.730         631.960            
       1.735         483.120                   1.735         639.730            
       1.740         491.040                   1.740         631.960            
       1.745         489.060                   1.745         626.780            
       1.750         487.080                   1.750         624.190            
       1.755         489.060                   1.755         624.190            
       1.760         481.140                   1.760         624.190            
       1.765         483.120                   1.765         619.010            
       1.770         487.080                   1.770         626.780            
       1.775         487.080                   1.775         624.190            
       1.780         483.120                   1.780         626.780            
       1.785         481.140                   1.785         631.960            
       1.790         483.120                   1.790         631.960            
       1.795         481.140                   1.795         629.370            
       1.800         490.000                   1.800         639.600            
       1.805         484.120                   1.805         634.400            
       1.810         478.240                   1.810         642.200            
       1.815         476.280                   1.815         642.200            
       1.820         476.280                   1.820         639.600            
       1.825         476.280                   1.825         642.200            
       1.830         484.120                   1.830         650.000            
       1.835         474.320                   1.835         634.400            
       1.840         472.360                   1.840         637.000            
       1.845         476.280                   1.845         637.000            
       1.850         472.360                   1.850         626.600            
       1.855         484.120                   1.855         629.200            
       1.860         484.120                   1.860         626.600            
       1.865         478.240                   1.865         616.200            
       1.870         482.160                   1.870         618.800            
       1.875         492.000                   1.875         617.500            
       1.880         490.000                   1.880         620.000            
       1.885         490.000                   1.885         620.000            
       1.890         492.000                   1.890         617.500            
       1.895         492.000                   1.895         620.000            
       1.900         492.000                   1.900         625.000            
       1.905         500.000                   1.905         617.500            
       1.910         492.000                   1.910         622.500            
       1.915         494.000                   1.915         620.000            
       1.920         496.000                   1.920         622.500            
       1.925         496.000                   1.925         617.500            
       1.930         494.000                   1.930         620.000            
       1.935         496.000                   1.935         620.000            
       1.940         494.000                   1.940         625.000            
       1.945         496.000                   1.945         620.000            
       1.950         503.010                   1.950         625.000            
       1.955         500.940                   1.955         622.500            
       1.960         503.010                   1.960         620.000            
       1.965         498.870                   1.965         617.500            
       1.970         503.010                   1.970         620.000            
       1.975         500.940                   1.975         620.000            
       1.980         509.220                   1.980         620.000            
       1.985         503.010                   1.985         620.000            
       1.990         507.150                   1.990         617.500            
       1.995         509.220                   1.995         620.000            
       2.000         511.290                   2.000         620.000            
       2.005         513.360                   2.005         615.000            
       2.010         517.500                   2.010         617.500            
       2.015         513.360                   2.015         617.500            
       2.020         513.360                   2.020         610.000            
       2.025         520.000                   2.025         620.000            
       2.030         513.760                   2.030         605.120            
       2.035         513.760                   2.035         615.040            
       2.040         511.680                   2.040         610.080            
       2.045         515.840                   2.045         607.600            
       2.050         511.680                   2.050         607.600            
       2.055         511.680                   2.055         605.120            
       2.060         515.840                   2.060         605.120            
       2.065         515.840                   2.065         612.560            
       2.070         511.680                   2.070         602.640            
       2.075         509.600                   2.075         602.640            
       2.080         505.440                   2.080         600.160            
       2.085         509.600                   2.085         597.680            
       2.090         511.680                   2.090         597.680            
       2.095         511.680                   2.095         595.200            
       2.100         510.880                   2.100         605.000            
       2.105         506.760                   2.105         595.320            
       2.110         504.700                   2.110         595.320            
       2.115         508.820                   2.115         590.480            
       2.120         506.760                   2.120         590.480            
       2.125         508.820                   2.125         592.900            
       2.130         504.700                   2.130         597.740            
       2.135         508.820                   2.135         585.640            
       2.140         510.880                   2.140         585.640            
       2.145         508.820                   2.145         585.640            
       2.150         508.820                   2.150         583.220            
       2.155         510.880                   2.155         580.800            
       2.160         515.000                   2.160         580.800            
       2.165         510.880                   2.165         573.540            
       2.170         510.880                   2.170         578.380            
       2.175         518.700                   2.175         572.500            
       2.180         514.500                   2.180         572.500            
       2.185         514.500                   2.185         563.340            
       2.190         518.700                   2.190         558.760            
       2.195         512.400                   2.195         561.050            
       2.200         516.600                   2.200         561.050            
       2.205         516.600                   2.205         561.050            
       2.210         518.700                   2.210         556.470            
       2.215         520.800                   2.215         556.470            
       2.220         516.600                   2.220         556.470            
       2.225         525.000                   2.225         554.180            
       2.230         518.700                   2.230         554.180            
       2.235         518.700                   2.235         554.180            
       2.240         525.000                   2.240         551.890            
       2.245         525.000                   2.245         551.890            
       2.250         530.000                   2.250         557.500            
       2.255         519.400                   2.255         548.580            
       2.260         521.520                   2.260         548.580            
       2.265         519.400                   2.265         553.040            
       2.270         521.520                   2.270         548.580            
       2.275         517.280                   2.275         548.580            
       2.280         530.000                   2.280         557.500            
       2.285         517.280                   2.285         546.350            
       2.290         517.280                   2.290         546.350            
       2.295         517.280                   2.295         544.120            
       2.300         510.920                   2.300         546.350            
       2.305         517.280                   2.305         546.350            
       2.310         513.040                   2.310         539.660            
       2.315         513.040                   2.315         546.350            
       2.320         513.040                   2.320         539.660            
       2.325         520.000                   2.325         543.900            
       2.330         513.760                   2.330         539.460            
       2.335         509.600                   2.335         541.680            
       2.340         509.600                   2.340         539.460            
       2.345         501.280                   2.345         539.460            
       2.350         503.360                   2.350         541.680            
       2.355         499.200                   2.355         541.680            
       2.360         501.280                   2.360         543.900            
       2.365         503.360                   2.365         539.460            
       2.370         503.360                   2.370         541.680            
       2.375         501.280                   2.375         543.900            
       2.380         497.120                   2.380         555.000            
       2.385         499.200                   2.385         555.000            
       2.390         497.120                   2.390         548.340            
       2.395         490.880                   2.395         550.560            
       2.400         497.500                   2.400         553.280            
       2.405         479.590                   2.405         551.040            
       2.410         485.560                   2.410         551.040            
       2.415         483.570                   2.415         551.040            
       2.420         479.590                   2.420         555.520            
       2.425         483.570                   2.425         551.040            
       2.430         479.590                   2.430         553.280            
       2.435         471.630                   2.435         553.280            
       2.440         471.630                   2.440         560.000            
       2.445         473.620                   2.445         553.280            
       2.450         481.580                   2.450         555.520            
       2.455         481.580                   2.455         553.280            
       2.460         465.660                   2.460         551.040            
       2.465         471.630                   2.465         553.280            
       2.470         475.610                   2.470         551.040            
       2.475         485.000                   2.475         560.000            
       2.480         473.360                   2.480         555.520            
       2.485         477.240                   2.485         553.280            
       2.490         477.240                   2.490         553.280            
       2.495         473.360                   2.495         555.520            
       2.500         471.420                   2.500         551.040            
       2.505         477.240                   2.505         551.040            
       2.510         473.360                   2.510         548.800            
       2.515         479.180                   2.515         544.320            
       2.520         477.240                   2.520         546.560            
       2.525         477.240                   2.525         546.560            
       2.530         473.360                   2.530         542.080            
       2.535         473.360                   2.535         548.800            
       2.540         469.480                   2.540         548.800            
       2.545         477.240                   2.545         539.840            
       2.550         480.000                   2.550         549.000            
       2.555         468.480                   2.555         549.000            
       2.560         468.480                   2.560         546.750            
       2.565         464.640                   2.565         549.000            
       2.570         468.480                   2.570         553.500            
       2.575         472.320                   2.575         546.750            
       2.580         466.560                   2.580         551.250            
       2.585         460.800                   2.585         551.250            
       2.590         468.480                   2.590         555.750            
       2.595         468.480                   2.595         555.750            
       2.600         466.560                   2.600         553.500            
       2.605         458.880                   2.605         562.500            
       2.610         460.800                   2.610         553.500            
       2.615         458.880                   2.615         555.750            
       2.620         458.880                   2.620         558.000            
       2.625         462.500                   2.625         558.600            
       2.630         453.250                   2.630         556.320            
       2.635         456.950                   2.635         570.000            
       2.640         453.250                   2.640         560.880            
       2.645         445.850                   2.645         560.880            
       2.650         451.400                   2.650         560.880            
       2.655         445.850                   2.655         558.600            
       2.660         444.000                   2.660         563.160            
       2.665         451.400                   2.665         565.440            
       2.670         444.000                   2.670         570.000            
       2.675         444.000                   2.675         570.000            
       2.680         444.000                   2.680         570.000            
       2.685         444.000                   2.685         563.160            
       2.690         444.000                   2.690         565.440            
       2.695         445.850                   2.695         563.160            
       2.700         451.360                   2.700         577.500            
       2.705         438.620                   2.705         568.260            
       2.710         442.260                   2.710         568.260            
       2.715         444.080                   2.715         572.880            
       2.720         444.080                   2.720         568.260            
       2.725         444.080                   2.725         572.880            
       2.730         436.800                   2.730         577.500            
       2.735         444.080                   2.735         570.570            
       2.740         445.900                   2.740         577.500            
       2.745         445.900                   2.745         577.500            
       2.750         444.080                   2.750         570.570            
       2.755         445.900                   2.755         570.570            
       2.760         449.540                   2.760         572.880            
       2.765         451.360                   2.765         572.880            
       2.770         455.000                   2.770         572.880            
       2.775         460.600                   2.775         580.000            
       2.780         450.800                   2.780         570.720            
       2.785         456.680                   2.785         570.720            
       2.790         464.520                   2.790         580.000            
       2.795         466.480                   2.795         573.040            
       2.800         460.600                   2.800         575.360            
       2.805         474.320                   2.805         570.720            
       2.810         472.360                   2.810         568.400            
       2.815         474.320                   2.815         573.040            
       2.820         476.280                   2.820         570.720            
       2.825         478.240                   2.825         570.720            
       2.830         482.160                   2.830         570.720            
       2.835         484.120                   2.835         570.720            
       2.840         486.080                   2.840         573.040            
       2.845         490.000                   2.845         568.400            
       2.850         496.920                   2.850         577.500            
       2.855         494.900                   2.855         568.260            
       2.860         494.900                   2.860         568.260            
       2.865         498.940                   2.865         565.950            
       2.870         496.920                   2.870         565.950            
       2.875         494.900                   2.875         568.260            
       2.880         505.000                   2.880         570.570            
       2.885         488.840                   2.885         570.570            
       2.890         496.920                   2.890         568.260            
       2.895         490.860                   2.895         572.880            
       2.900         498.940                   2.900         572.880            
       2.905         496.920                   2.905         572.880            
       2.910         496.920                   2.910         568.260            
       2.915         498.940                   2.915         565.950            
       2.920         498.940                   2.920         570.570            
       2.925         500.000                   2.925         570.720            
       2.930         492.000                   2.930         580.000            
       2.935         492.000                   2.935         570.720            
       2.940         500.000                   2.940         570.720            
       2.945         496.000                   2.945         573.040            
       2.950         492.000                   2.950         575.360            
       2.955         492.000                   2.955         573.040            
       2.960         492.000                   2.960         573.040            
       2.965         492.000                   2.965         573.040            
       2.970         492.000                   2.970         568.400            
       2.975         490.000                   2.975         568.400            
       2.980         492.000                   2.980         570.720            
       2.985         490.000                   2.985         568.400            
       2.990         492.000                   2.990         566.080            
       2.995         494.000                   2.995         573.040            
       3.000         499.380                   3.000         577.500            
       3.005         487.200                   3.005         565.950            
       3.010         493.290                   3.010         563.640            
       3.015         497.350                   3.015         572.880            
       3.020         497.350                   3.020         565.950            
       3.025         493.290                   3.025         568.260            
       3.030         501.410                   3.030         565.950            
       3.035         497.350                   3.035         565.950            
       3.040         499.380                   3.040         565.950            
       3.045         501.410                   3.045         570.570            
       3.050         499.380                   3.050         565.950            
       3.055         503.440                   3.055         565.950            
       3.060         503.440                   3.060         570.570            
       3.065         501.410                   3.065         568.260            
       3.070         507.500                   3.070         568.260            
       3.075         511.290                   3.075         568.260            
       3.080         507.150                   3.080         565.950            
       3.085         500.940                   3.085         565.950            
       3.090         509.220                   3.090         565.950            
       3.095         511.290                   3.095         568.260            
       3.100         511.290                   3.100         570.570            
       3.105         509.220                   3.105         568.260            
       3.110         511.290                   3.110         570.570            
       3.115         517.500                   3.115         577.500            
       3.120         509.220                   3.120         568.260            
       3.125         511.290                   3.125         565.950            
       3.130         511.290                   3.130         568.260            
       3.135         513.360                   3.135         570.570            
       3.140         517.500                   3.140         570.570            
       3.145         509.220                   3.145         568.260            
       3.150         522.500                   3.150         575.510            
       3.155         512.050                   3.155         570.850            
       3.160         512.050                   3.160         573.180            
       3.165         512.050                   3.165         573.180            
       3.170         514.140                   3.170         570.850            
       3.175         514.140                   3.175         573.180            
       3.180         509.960                   3.180         575.510            
       3.185         509.960                   3.185         573.180            
       3.190         509.960                   3.190         573.180            
       3.195         514.140                   3.195         575.510            
       3.200         514.140                   3.200         582.500            
       3.205         512.050                   3.205         577.840            
       3.210         514.140                   3.210         577.840            
       3.215         509.960                   3.215         573.180            
       3.220         505.780                   3.220         570.850            
       3.225         525.000                   3.225         585.000            
       3.230         506.100                   3.230         575.640            
       3.235         508.200                   3.235         573.300            
       3.240         514.500                   3.240         573.300            
       3.245         514.500                   3.245         573.300            
       3.250         508.200                   3.250         570.960            
       3.255         514.500                   3.255         570.960            
       3.260         514.500                   3.260         573.300            
       3.265         514.500                   3.265         575.640            
       3.270         520.800                   3.270         568.620            
       3.275         518.700                   3.275         568.620            
       3.280         518.700                   3.280         563.940            
       3.285         520.800                   3.285         570.960            
       3.290         525.000                   3.290         570.960            
       3.295         525.000                   3.295         566.280            
       3.300         533.520                   3.300         580.000            
       3.305         529.200                   3.305         566.080            
       3.310         520.560                   3.310         568.400            
       3.315         531.360                   3.315         568.400            
       3.320         529.200                   3.320         568.400            
       3.325         527.040                   3.325         563.760            
       3.330         533.520                   3.330         559.120            
       3.335         533.520                   3.335         566.080            
       3.340         533.520                   3.340         568.400            
       3.345         529.200                   3.345         566.080            
       3.350         535.680                   3.350         568.400            
       3.355         533.520                   3.355         561.440            
       3.360         540.000                   3.360         559.120            
       3.365         533.520                   3.365         561.440            
       3.370         533.520                   3.370         556.800            
       3.375         545.600                   3.375         565.000            
       3.380         539.000                   3.380         555.960            
       3.385         536.800                   3.385         555.960            
       3.390         541.200                   3.390         553.700            
       3.395         539.000                   3.395         553.700            
       3.400         539.000                   3.400         553.700            
       3.405         541.200                   3.405         555.960            
       3.410         536.800                   3.410         553.700            
       3.415         541.200                   3.415         553.700            
       3.420         545.600                   3.420         553.700            
       3.425         550.000                   3.425         553.700            
       3.430         545.600                   3.430         553.700            
       3.435         543.400                   3.435         551.440            
       3.440         550.000                   3.440         551.440            
       3.445         545.600                   3.445         546.920            
       3.450         556.320                   3.450         553.040            
       3.455         558.600                   3.455         557.500            
       3.460         554.040                   3.460         548.580            
       3.465         549.480                   3.465         548.580            
       3.470         556.320                   3.470         546.350            
       3.475         558.600                   3.475         544.120            
       3.480         570.000                   3.480         550.810            
       3.485         558.600                   3.485         541.890            
       3.490         558.600                   3.490         544.120            
       3.495         563.160                   3.495         539.660            
       3.500         563.160                   3.500         541.890            
       3.505         563.160                   3.505         537.430            
       3.510         563.160                   3.510         539.660            
       3.515         563.160                   3.515         530.740            
       3.520         570.000                   3.520         530.740            
       3.525         570.400                   3.525         540.000            
       3.530         568.100                   3.530         533.520            
       3.535         568.100                   3.535         527.040            
       3.540         575.000                   3.540         527.040            
       3.545         561.200                   3.545         520.560            
       3.550         568.100                   3.550         527.040            
       3.555         568.100                   3.555         524.880            
       3.560         568.100                   3.560         516.240            
       3.565         568.100                   3.565         527.040            
       3.570         568.100                   3.570         520.560            
       3.575         565.800                   3.575         516.240            
       3.580         568.100                   3.580         516.240            
       3.585         570.400                   3.585         516.240            
       3.590         570.400                   3.590         511.920            
       3.595         575.000                   3.595         511.920            
       3.600         582.500                   3.600         517.500            
       3.605         575.510                   3.605         511.290            
       3.610         568.520                   3.610         509.220            
       3.615         570.850                   3.615         509.220            
       3.620         573.180                   3.620         509.220            
       3.625         575.510                   3.625         507.150            
       3.630         566.190                   3.630         498.870            
       3.635         566.190                   3.635         500.940            
       3.640         568.520                   3.640         503.010            
       3.645         566.190                   3.645         500.940            
       3.650         566.190                   3.650         500.940            
       3.655         568.520                   3.655         503.010            
       3.660         563.860                   3.660         509.220            
       3.665         563.860                   3.665         498.870            
       3.670         563.860                   3.670         498.870            
       3.675         575.000                   3.675         501.840            
       3.680         565.800                   3.680         499.800            
       3.685         568.100                   3.685         510.000            
       3.690         561.200                   3.690         501.840            
       3.695         565.800                   3.695         499.800            
       3.700         563.500                   3.700         499.800            
       3.705         561.200                   3.705         501.840            
       3.710         565.800                   3.710         501.840            
       3.715         565.800                   3.715         503.880            
       3.720         561.200                   3.720         501.840            
       3.725         563.500                   3.725         505.920            
       3.730         563.500                   3.730         505.920            
       3.735         568.100                   3.735         503.880            
       3.740         568.100                   3.740         505.920            
       3.745         568.100                   3.745         510.000            
       3.750         570.850                   3.750         513.040            
       3.755         568.520                   3.755         510.920            
       3.760         568.520                   3.760         517.280            
       3.765         570.850                   3.765         513.040            
       3.770         573.180                   3.770         513.040            
       3.775         573.180                   3.775         508.800            
       3.780         575.510                   3.780         519.400            
       3.785         575.510                   3.785         513.040            
       3.790         575.510                   3.790         517.280            
       3.795         577.840                   3.795         519.400            
       3.800         582.500                   3.800         525.760            
       3.805         573.180                   3.805         525.760            
       3.810         575.510                   3.810         530.000            
       3.815         577.840                   3.815         523.640            
       3.820         582.500                   3.820         523.640            
       3.825         585.000                   3.825         533.520            
       3.830         575.640                   3.830         524.880            
       3.835         575.640                   3.835         529.200            
       3.840         585.000                   3.840         524.880            
       3.845         573.300                   3.845         527.040            
       3.850         577.980                   3.850         527.040            
       3.855         575.640                   3.855         527.040            
       3.860         573.300                   3.860         527.040            
       3.865         573.300                   3.865         529.200            
       3.870         575.640                   3.870         540.000            
       3.875         570.960                   3.875         529.200            
       3.880         575.640                   3.880         533.520            
       3.885         573.300                   3.885         531.360            
       3.890         573.300                   3.890         531.360            
       3.895         577.980                   3.895         524.880            
       3.900         577.500                   3.900         537.500            
       3.905         572.880                   3.905         528.900            
       3.910         572.880                   3.910         531.050            
       3.915         568.260                   3.915         526.750            
       3.920         570.570                   3.920         526.750            
       3.925         570.570                   3.925         526.750            
       3.930         572.880                   3.930         524.600            
       3.935         570.570                   3.935         526.750            
       3.940         570.570                   3.940         522.450            
       3.945         565.950                   3.945         526.750            
       3.950         561.330                   3.950         524.600            
       3.955         565.950                   3.955         526.750            
       3.960         565.950                   3.960         526.750            
       3.965         563.640                   3.965         526.750            
       3.970         565.950                   3.970         522.450            
       3.975         570.000                   3.975         535.000            
       3.980         563.160                   3.980         522.160            
       3.985         560.880                   3.985         524.300            
       3.990         560.880                   3.990         528.580            
       3.995         565.440                   3.995         526.440            
       4.000         563.160                   4.000         528.580            
       4.005         556.320                   4.005         530.720            
       4.010         565.440                   4.010         530.720            
       4.015         560.880                   4.015         528.580            
       4.020         560.880                   4.020         530.720            
       4.025         565.440                   4.025         526.440            
       4.030         563.160                   4.030         530.720            
       4.035         563.160                   4.035         530.720            
       4.040         560.880                   4.040         528.580            
       4.045         563.160                   4.045         528.580            
       4.050         568.100                   4.050         538.160            
       4.055         558.900                   4.055         527.310            
       4.060         563.500                   4.060         529.480            
       4.065         568.100                   4.065         535.990            
       4.070         565.800                   4.070         533.820            
       4.075         565.800                   4.075         531.650            
       4.080         565.800                   4.080         533.820            
       4.085         565.800                   4.085         535.990            
       4.090         568.100                   4.090         535.990            
       4.095         568.100                   4.095         531.650            
       4.100         575.000                   4.100         538.160            
       4.105         570.400                   4.105         538.160            
       4.110         563.500                   4.110         542.500            
       4.115         565.800                   4.115         535.990            
       4.120         561.200                   4.120         531.650            
       4.125         572.500                   4.125         540.000            
       4.130         565.630                   4.130         535.680            
       4.135         567.920                   4.135         531.360            
       4.140         565.630                   4.140         533.520            
       4.145         567.920                   4.145         535.680            
       4.150         567.920                   4.150         535.680            
       4.155         567.920                   4.155         535.680            
       4.160         567.920                   4.160         533.520            
       4.165         567.920                   4.165         529.200            
       4.170         565.630                   4.170         531.360            
       4.175         565.630                   4.175         531.360            
       4.180         567.920                   4.180         531.360            
       4.185         565.630                   4.185         531.360            
       4.190         565.630                   4.190         529.200            
       4.195         563.340                   4.195         531.360            
       4.200         572.500                   4.200         540.000            
       4.205         565.630                   4.205         535.680            
       4.210         565.630                   4.210         533.520            
       4.215         561.050                   4.215         531.360            
       4.220         561.050                   4.220         535.680            
       4.225         563.340                   4.225         535.680            
       4.230         567.920                   4.230         533.520            
       4.235         563.340                   4.235         529.200            
       4.240         563.340                   4.240         531.360            
       4.245         558.760                   4.245         531.360            
       4.250         563.340                   4.250         531.360            
       4.255         572.500                   4.255         531.360            
       4.260         563.340                   4.260         529.200            
       4.265         561.050                   4.265         529.200            
       4.270         563.340                   4.270         529.200            
       4.275         572.500                   4.275         530.720            
       4.280         561.050                   4.280         528.580            
       4.285         563.340                   4.285         528.580            
       4.290         561.050                   4.290         522.160            
       4.295         565.630                   4.295         526.440            
       4.300         556.470                   4.300         528.580            
       4.305         558.760                   4.305         528.580            
       4.310         558.760                   4.310         526.440            
       4.315         561.050                   4.315         528.580            
       4.320         563.340                   4.320         535.000            
       4.325         558.760                   4.325         526.440            
       4.330         561.050                   4.330         528.580            
       4.335         563.340                   4.335         530.720            
       4.340         561.050                   4.340         528.580            
       4.345         565.630                   4.345         528.580            
       4.350         575.000                   4.350         537.500            
       4.355         558.900                   4.355         524.600            
       4.360         561.200                   4.360         528.900            
       4.365         561.200                   4.365         522.450            
       4.370         558.900                   4.370         524.600            
       4.375         563.500                   4.375         524.600            
       4.380         575.000                   4.380         528.900            
       4.385         561.200                   4.385         524.600            
       4.390         561.200                   4.390         526.750            
       4.395         556.600                   4.395         526.750            
       4.400         558.900                   4.400         524.600            
       4.405         561.200                   4.405         524.600            
       4.410         565.800                   4.410         531.050            
       4.415         558.900                   4.415         528.900            
       4.420         558.900                   4.420         526.750            
       4.425         567.500                   4.425         535.000            
       4.430         556.150                   4.430         524.300            
       4.435         553.880                   4.435         526.440            
       4.440         553.880                   4.440         526.440            
       4.445         556.150                   4.445         528.580            
       4.450         556.150                   4.450         524.300            
       4.455         556.150                   4.455         524.300            
       4.460         556.150                   4.460         524.300            
       4.465         558.420                   4.465         528.580            
       4.470         560.690                   4.470         528.580            
       4.475         556.150                   4.475         522.160            
       4.480         553.880                   4.480         524.300            
       4.485         560.690                   4.485         522.160            
       4.490         556.150                   4.490         526.440            
       4.495         556.150                   4.495         526.440            
       4.500         562.500                   4.500         526.440            
       4.505         555.750                   4.505         524.300            
       4.510         555.750                   4.510         522.160            
       4.515         558.000                   4.515         526.440            
       4.520         555.750                   4.520         515.740            
       4.525         553.500                   4.525         526.440            
       4.530         551.250                   4.530         522.160            
       4.535         546.750                   4.535         517.880            
       4.540         549.000                   4.540         524.300            
       4.545         544.500                   4.545         528.580            
       4.550         546.750                   4.550         535.000            
       4.555         546.750                   4.555         524.300            
       4.560         549.000                   4.560         530.720            
       4.565         553.500                   4.565         530.720            
       4.570         551.250                   4.570         530.720            
       4.575         553.040                   4.575         533.200            
       4.580         546.350                   4.580         528.900            
       4.585         546.350                   4.585         524.600            
       4.590         544.120                   4.590         528.900            
       4.595         550.810                   4.595         531.050            
       4.600         548.580                   4.600         533.200            
       4.605         550.810                   4.605         533.200            
       4.610         553.040                   4.610         533.200            
       4.615         557.500                   4.615         533.200            
       4.620         557.500                   4.620         533.200            
       4.625         553.040                   4.625         531.050            
       4.630         550.810                   4.630         533.200            
       4.635         553.040                   4.635         537.500            
       4.640         553.040                   4.640         531.050            
       4.645         550.810                   4.645         533.200            
       4.650         558.000                   4.650         538.160            
       4.655         551.250                   4.655         533.820            
       4.660         549.000                   4.660         531.650            
       4.665         553.500                   4.665         533.820            
       4.670         553.500                   4.670         531.650            
       4.675         555.750                   4.675         542.500            
       4.680         558.000                   4.680         529.480            
       4.685         555.750                   4.685         529.480            
       4.690         558.000                   4.690         529.480            
       4.695         562.500                   4.695         531.650            
       4.700         553.500                   4.700         531.650            
       4.705         562.500                   4.705         531.650            
       4.710         558.000                   4.710         529.480            
       4.715         553.500                   4.715         531.650            
       4.720         558.000                   4.720         522.970            
       4.725         563.500                   4.725         532.500            
       4.730         554.300                   4.730         523.980            
       4.735         556.600                   4.735         519.720            
       4.740         556.600                   4.740         523.980            
       4.745         556.600                   4.745         511.200            
       4.750         554.300                   4.750         513.330            
       4.755         561.200                   4.755         515.460            
       4.760         556.600                   4.760         513.330            
       4.765         558.900                   4.765         511.200            
       4.770         558.900                   4.770         513.330            
       4.775         565.800                   4.775         511.200            
       4.780         561.200                   4.780         509.070            
       4.785         561.200                   4.785         504.810            
       4.790         563.500                   4.790         500.550            
       4.795         575.000                   4.795         500.550            
       4.800         575.990                   4.800         507.500            
       4.805         575.990                   4.805         493.290            
       4.810         578.380                   4.810         499.380            
       4.815         580.770                   4.815         493.290            
       4.820         583.160                   4.820         491.260            
       4.825         597.500                   4.825         493.290            
       4.830         583.160                   4.830         483.140            
       4.835         585.550                   4.835         483.140            
       4.840         585.550                   4.840         487.200            
       4.845         587.940                   4.845         481.110            
       4.850         585.550                   4.850         483.140            
       4.855         580.770                   4.855         479.080            
       4.860         585.550                   4.860         479.080            
       4.865         587.940                   4.865         470.960            
       4.870         578.380                   4.870         466.900            
       4.875         590.000                   4.875         467.500            
       4.880         578.200                   4.880         461.890            
       4.885         575.840                   4.885         463.760            
       4.890         571.120                   4.890         454.410            
       4.895         571.120                   4.895         454.410            
       4.900         566.400                   4.900         448.800            
       4.905         566.400                   4.905         441.320            
       4.910         564.040                   4.910         441.320            
       4.915         561.680                   4.915         433.840            
       4.920         561.680                   4.920         439.450            
       4.925         556.960                   4.925         428.230            
       4.930         552.240                   4.930         418.880            
       4.935         556.960                   4.935         417.010            
       4.940         552.240                   4.940         405.790            
       4.945         554.600                   4.945         402.050            
       4.950         555.000                   4.950         402.500            
       4.955         541.680                   4.955         393.750            
       4.960         537.240                   4.960         381.500            
       4.965         539.460                   4.965         376.250            
       4.970         539.460                   4.970         371.000            
       4.975         532.800                   4.975         371.000            
       4.980         530.580                   4.980         367.500            
       4.985         541.680                   4.985         367.500            
       4.990         532.800                   4.990         369.250            
       4.995         541.680                   4.995         374.500            
       5.000         539.460                   5.000         385.000            
       5.005         543.900                   5.005         399.000            
       5.010         546.120                   5.010         404.250            
       5.015         543.900                   5.015         421.750            
       5.020         539.460                   5.020         437.500            
       5.025         548.340                   5.025         455.620            
       5.030         541.680                   5.030         472.340            
       5.035         541.680                   5.035         478.610            
       5.040         555.000                   5.040         491.150            
       5.045         537.240                   5.045         499.510            
       5.050         537.240                   5.050         503.690            
       5.055         532.800                   5.055         509.960            
       5.060         530.580                   5.060         514.140            
       5.065         528.360                   5.065         509.960            
       5.070         521.700                   5.070         512.050            
       5.075         521.700                   5.075         514.140            
       5.080         517.260                   5.080         509.960            
       5.085         512.820                   5.085         516.230            
       5.090         506.160                   5.090         512.050            
       5.095         501.720                   5.095         522.500            
       5.100         499.800                   5.100         521.170            
       5.105         493.500                   5.105         527.500            
       5.110         491.400                   5.110         521.170            
       5.115         493.500                   5.115         521.170            
       5.120         495.600                   5.120         527.500            
       5.125         501.900                   5.125         521.170            
       5.130         499.800                   5.130         523.280            
       5.135         514.500                   5.135         521.170            
       5.140         508.200                   5.140         514.840            
       5.145         506.100                   5.145         514.840            
       5.150         514.500                   5.150         510.620            
       5.155         520.800                   5.155         504.290            
       5.160         520.800                   5.160         504.290            
       5.165         525.000                   5.165         493.740            
       5.170         520.800                   5.170         495.850            
       5.175         526.700                   5.175         495.600            
       5.180         526.700                   5.180         504.000            
       5.185         526.700                   5.185         499.800            
       5.190         526.700                   5.190         495.600            
       5.195         533.600                   5.195         504.000            
       5.200         531.300                   5.200         506.100            
       5.205         535.900                   5.205         512.400            
       5.210         540.500                   5.210         514.500            
       5.215         549.700                   5.215         514.500            
       5.220         556.600                   5.220         516.600            
       5.225         556.600                   5.225         516.600            
       5.230         565.800                   5.230         516.600            
       5.235         563.500                   5.235         518.700            
       5.240         575.000                   5.240         525.000            
       5.245         570.400                   5.245         518.700            
       5.250         583.160                   5.250         526.440            
       5.255         575.990                   5.255         517.880            
       5.260         573.600                   5.260         513.600            
       5.265         575.990                   5.265         513.600            
       5.270         575.990                   5.270         522.160            
       5.275         575.990                   5.275         513.600            
       5.280         575.990                   5.280         526.440            
       5.285         573.600                   5.285         524.300            
       5.290         573.600                   5.290         526.440            
       5.295         571.210                   5.295         524.300            
       5.300         580.770                   5.300         530.720            
       5.305         583.160                   5.305         535.000            
       5.310         585.550                   5.310         528.580            
       5.315         587.940                   5.315         524.300            
       5.320         597.500                   5.320         517.880            
       5.325         597.780                   5.325         522.500            
       5.330         602.700                   5.330         512.050            
       5.335         615.000                   5.335         509.960            
       5.340         610.080                   5.340         509.960            
       5.345         610.080                   5.345         505.780            
       5.350         607.620                   5.350         505.780            
       5.355         610.080                   5.355         505.780            
       5.360         610.080                   5.360         509.960            
       5.365         615.000                   5.365         505.780            
       5.370         610.080                   5.370         505.780            
       5.375         605.160                   5.375         509.960            
       5.380         605.160                   5.380         505.780            
       5.385         605.160                   5.385         505.780            
       5.390         605.160                   5.390         503.690            
       5.395         607.620                   5.395         503.690            
       5.400         615.000                   5.400         502.500            
       5.405         602.700                   5.405         494.460            
       5.410         605.160                   5.410         494.460            
       5.415         607.620                   5.415         488.430            
       5.420         602.700                   5.420         478.380            
       5.425         615.000                   5.425         482.400            
       5.430         615.000                   5.430         472.350            
       5.435         610.080                   5.435         484.410            
       5.440         615.000                   5.440         476.370            
       5.445         607.620                   5.445         482.400            
       5.450         605.160                   5.450         474.360            
       5.455         607.620                   5.455         476.370            
       5.460         607.620                   5.460         474.360            
       5.465         602.700                   5.465         474.360            
       5.470         597.780                   5.470         468.330            
       5.475         602.500                   5.475         472.500            
       5.480         590.450                   5.480         464.940            
       5.485         590.450                   5.485         453.600            
       5.490         592.860                   5.490         453.600            
       5.495         590.450                   5.495         451.710            
       5.500         590.450                   5.500         451.710            
       5.505         590.450                   5.505         444.150            
       5.510         590.450                   5.510         438.480            
       5.515         595.270                   5.515         436.590            
       5.520         592.860                   5.520         434.700            
       5.525         590.450                   5.525         429.030            
       5.530         588.040                   5.530         427.140            
       5.535         583.220                   5.535         423.360            
       5.540         578.400                   5.540         423.360            
       5.545         571.170                   5.545         423.360            
       5.550         572.500                   5.550         432.000            
       5.555         558.760                   5.555         424.320            
       5.560         554.180                   5.560         432.000            
       5.565         542.730                   5.565         433.920            
       5.570         535.860                   5.570         433.920            
       5.575         526.700                   5.575         439.680            
       5.580         510.670                   5.580         443.520            
       5.585         503.800                   5.585         447.360            
       5.590         501.510                   5.590         447.360            
       5.595         499.220                   5.595         453.120            
       5.600         487.770                   5.600         447.360            
       5.605         487.770                   5.605         456.960            
       5.610         485.480                   5.610         458.880            
       5.615         483.190                   5.615         468.480            
       5.620         483.190                   5.620         480.000            
       5.625         487.080                   5.625         493.120            
       5.630         479.160                   5.630         501.160            
       5.635         481.140                   5.635         517.240            
       5.640         481.140                   5.640         527.960            
       5.645         479.160                   5.645         544.040            
       5.650         495.000                   5.650         557.440            
       5.655         487.080                   5.655         568.160            
       5.660         489.060                   5.660         589.600            
       5.665         487.080                   5.665         594.960            
       5.670         487.080                   5.670         608.360            
       5.675         489.060                   5.675         619.080            
       5.680         487.080                   5.680         632.480            
       5.685         491.040                   5.685         632.480            
       5.690         491.040                   5.690         656.600            
       5.695         495.000                   5.695         670.000            
       5.700         501.120                   5.700         681.120            
       5.705         508.080                   5.705         691.440            
       5.710         503.440                   5.710         701.760            
       5.715         508.080                   5.715         712.080            
       5.720         512.720                   5.720         725.840            
       5.725         517.360                   5.725         739.600            
       5.730         531.280                   5.730         756.800            
       5.735         528.960                   5.735         767.120            
       5.740         533.600                   5.740         784.320            
       5.745         528.960                   5.745         794.640            
       5.750         542.880                   5.750         804.960            
       5.755         549.840                   5.755         822.160            
       5.760         554.480                   5.760         835.920            
       5.765         568.400                   5.765         846.240            
       5.770         580.000                   5.770         860.000            
       5.775         592.000                   5.775         871.520            
       5.780         595.200                   5.780         871.520            
       5.785         604.800                   5.785         884.090            
       5.790         614.400                   5.790         892.470            
       5.795         630.400                   5.795         896.660            
       5.800         636.800                   5.800         900.850            
       5.805         656.000                   5.805         913.420            
       5.810         672.000                   5.810         921.800            
       5.815         681.600                   5.815         934.370            
       5.820         694.400                   5.820         946.940            
       5.825         710.400                   5.825         963.700            
       5.830         732.800                   5.830         976.270            
       5.835         755.200                   5.835        1001.410            
       5.840         774.400                   5.840        1022.360            
       5.845         800.000                   5.845        1047.500            
       5.850         829.920                   5.850        1064.360            
       5.855         841.890                   5.855        1073.380            
       5.860         869.820                   5.860        1082.400            
       5.865         889.770                   5.865        1095.930            
       5.870         913.710                   5.870        1109.460            
       5.875         933.660                   5.875        1113.970            
       5.880         961.590                   5.880        1127.500            
       5.885         973.560                   5.885        1118.480            
       5.890         989.520                   5.890        1122.990            
       5.895         993.510                   5.895        1113.970            
       5.900         997.500                   5.900        1104.950            
       5.905         993.510                   5.905        1095.930            
       5.910         981.540                   5.910        1073.380            
       5.915         965.580                   5.915        1055.340            
       5.920         949.620                   5.920        1037.300            
       5.925         937.500                   5.925        1022.500            
       5.930         892.500                   5.930        1002.050            
       5.935         858.750                   5.935         981.600            
       5.940         825.000                   5.940         957.060            
       5.945         780.000                   5.945         928.430            
       5.950         738.750                   5.950         895.710            
       5.955         697.500                   5.955         867.080            
       5.960         641.250                   5.960         834.360            
       5.965         585.000                   5.965         793.460            
       5.970         540.000                   5.970         756.650            
       5.975         480.000                   5.975         707.570            
       5.980         438.750                   5.980         662.580            
       5.985         386.250                   5.985         613.500            
       5.990         341.250                   5.990         564.420            
       5.995         292.500                   5.995         507.160            
       6.000         240.000                   6.000         460.000            
       6.005         187.200                   6.005         391.920            
       6.010         139.200                   6.010         334.880            
       6.015          92.160                   6.015         283.360            
       6.020          51.840                   6.020         237.360            
       6.025           0.000                   6.025         185.840            
       6.030           0.000                   6.030         149.040            
       6.035           0.000                   6.035         112.240            
       6.040           0.000                   6.040          77.280            
       6.045           0.000                   6.045          51.520            
       6.050           0.000                   6.050          11.040            
       6.055           0.000                   6.055           7.360            
       6.060           0.000                   6.060           7.360            
       6.065           0.000                   6.065           3.680            
       6.070           0.000                   6.070           7.360            
       6.075           0.000                   6.075          10.000            
       6.080           0.000                   6.080           2.480            
       6.085           0.000                   6.085           5.000            
       6.090           0.000                   6.090           7.480            
       6.095           0.000                   6.095           0.000            
       6.100           0.000                   6.100           5.000            
       6.105           0.000                   6.105           2.480            
       6.110           0.000                   6.110           2.480            
       6.115           0.000                   6.115           5.000            
       6.120           0.000                   6.120           0.000            
       6.125           0.000                   6.125           0.000            
       6.130           0.000                   6.130           0.000            
       6.135           0.000                   6.135           0.000            
       6.140           0.000                   6.140           0.000            
       6.145           0.000                   6.145           0.000            
       6.150           0.000                   6.150           0.000            
       6.155           0.000                   6.155           0.000            
       6.160           0.000                   6.160           0.000            
       6.165           0.000                   6.165           0.000            
       6.170           0.000                   6.170           0.000            
       6.175           0.000                   6.175           0.000            
       6.180           0.000                   6.180           0.000            
       6.185           0.000                   6.185           0.000            
       6.190           0.000                   6.190           0.000            
       6.195           0.000                   6.195           0.000            
       6.200           0.000                   6.200           0.000            
       6.205           0.000                   6.205           0.000            
       6.210           0.000                   6.210           0.000            
       6.215           0.000                   6.215           0.000            
       6.220           0.000                   6.220           0.000            
       6.225           0.000                   6.225           0.000            
       6.230           0.000                   6.230           0.000            
       6.235           0.000                   6.235           0.000            
       6.240           0.000                   6.240           0.000            
       6.245           0.000                   6.245           0.000            
       6.250           0.000                   6.250           0.000            
       6.255           0.000                   6.255           0.000            
       6.260           0.000                   6.260           0.000            
       6.265           0.000                   6.265           0.000            
       6.270           0.000                   6.270           0.000            
       6.275           0.000                   6.275           0.000            
       6.280           0.000                   6.280           0.000            
       6.285           0.000                   6.285           0.000            
       6.290           0.000                   6.290           0.000            
       6.295           0.000                   6.295           0.000            
       6.300           0.000                   6.300           0.000            
       6.305           0.000                   6.305           0.000            
       6.310           0.000                   6.310           0.000            
       6.315           0.000                   6.315           0.000            
       6.320           0.000                   6.320           0.000            
       6.325           0.000                   6.325           0.000            
       6.330           0.000                   6.330           0.000            
       6.335           0.000                   6.335           0.000            
       6.340           0.000                   6.340           0.000            
       6.345           0.000                   6.345           2.460            
       6.350           2.480                   6.350           2.460            
       6.355          10.000                   6.355           9.960            
       6.360          10.000                   6.360          15.000            
       6.365           7.480                   6.365          12.480            
       6.370          10.000                   6.370           9.960            
       6.375          14.920                   6.375          11.000            
       6.380          14.920                   6.380          11.000            
       6.385          14.920                   6.385           5.500            
       6.390          14.920                   6.390          11.000            
       6.395          14.920                   6.395          11.000            
       6.400          14.920                   6.400          16.500            
       6.405          14.920                   6.405          33.000            
       6.410          22.380                   6.410         236.500            
       6.415         186.500                   6.415        1072.500            
       6.420         693.780                   6.420        1375.000            
       6.425         932.500                   6.425         951.500            
       6.430         604.260                   6.430         819.500            
       6.435         477.440                   6.435         803.000            
       6.440         417.760                   6.440         880.000            
       6.445         414.030                   6.445        1061.500            
       6.450         483.000                   6.450        1229.580            
       6.455         582.820                   6.455        1341.360            
       6.460         721.280                   6.460        1484.190            
       6.465         805.000                   6.465        1552.500            
       6.470         788.900                   6.470        1546.290            
       6.475         747.040                   6.475        1490.400            
       6.480         747.040                   6.480        1428.300            
       6.485         756.700                   6.485        1372.410            
       6.490         759.920                   6.490        1335.150            
       6.495         747.040                   6.495        1304.100            
       6.500         737.380                   6.500        1291.680            
       6.505         734.160                   6.505        1297.890            
       6.510         714.840                   6.510        1316.520            
       6.515         695.520                   6.515        1328.940            
       6.520         672.980                   6.520        1359.990            
       6.525         654.550                   6.525        1374.480            
       6.530         622.750                   6.530        1380.000            
       6.535         598.900                   6.535        1363.440            
       6.540         590.950                   6.540        1341.360            
       6.545         580.350                   6.545        1308.240            
       6.550         580.350                   6.550        1258.560            
       6.555         580.350                   6.555        1214.400            
       6.560         593.600                   6.560        1164.720            
       6.565         598.900                   6.565        1120.560            
       6.570         612.150                   6.570        1081.920            
       6.575         620.100                   6.575        1048.800            
       6.580         628.050                   6.580        1032.240            
       6.585         638.650                   6.585        1026.720            
       6.590         649.250                   6.590        1026.720            
       6.595         662.500                   6.595        1032.240            
       6.600         687.800                   6.600        1046.240            
       6.605         691.420                   6.605        1046.240            
       6.610         709.520                   6.610        1056.300            
       6.615         724.000                   6.615        1076.420            
       6.620         749.340                   6.620        1091.510            
       6.625         767.440                   6.625        1116.660            
       6.630         792.780                   6.630        1141.810            
       6.635         810.880                   6.635        1166.960            
       6.640         828.980                   6.640        1197.140            
       6.645         843.460                   6.645        1222.290            
       6.650         850.700                   6.650        1242.410            
       6.655         876.040                   6.655        1257.500            
       6.660         883.280                   6.660        1252.470            
       6.665         894.140                   6.665        1252.470            
       6.670         905.000                   6.670        1247.440            
       6.675         920.000                   6.675        1235.000            
       6.680         908.960                   6.680        1230.000            
       6.685         908.960                   6.685        1210.000            
       6.690         901.600                   6.690        1215.000            
       6.695         897.920                   6.695        1205.000            
       6.700         894.240                   6.700        1210.000            
       6.705         890.560                   6.705        1225.000            
       6.710         883.200                   6.710        1235.000            
       6.715         886.880                   6.715        1235.000            
       6.720         875.840                   6.720        1245.000            
       6.725         872.160                   6.725        1240.000            
       6.730         868.480                   6.730        1245.000            
       6.735         872.160                   6.735        1245.000            
       6.740         868.480                   6.740        1250.000            
       6.745         872.160                   6.745        1235.000            
       6.750         877.500                   6.750        1235.000            
       6.755         870.480                   6.755        1225.120            
       6.760         866.970                   6.760        1215.240            
       6.765         866.970                   6.765        1205.360            
       6.770         866.970                   6.770        1195.480            
       6.775         866.970                   6.775        1185.600            
       6.780         866.970                   6.780        1180.660            
       6.785         859.950                   6.785        1160.900            
       6.790         849.420                   6.790        1155.960            
       6.795         842.400                   6.795        1146.080            
       6.800         838.890                   6.800        1136.200            
       6.805         828.360                   6.805        1131.260            
       6.810         810.810                   6.810        1116.440            
       6.815         796.770                   6.815        1106.560            
       6.820         786.240                   6.820        1096.680            
       6.825         782.500                   6.825        1092.500            
       6.830         760.590                   6.830        1079.390            
       6.835         757.460                   6.835        1061.910            
       6.840         751.200                   6.840        1053.170            
       6.845         741.810                   6.845        1040.060            
       6.850         735.550                   6.850        1026.950            
       6.855         732.420                   6.855        1013.840            
       6.860         732.420                   6.860        1005.100            
       6.865         729.290                   6.865         996.360            
       6.870         732.420                   6.870         991.990            
       6.875         729.290                   6.875         983.250            
       6.880         732.420                   6.880         974.510            
       6.885         732.420                   6.885         965.770            
       6.890         735.550                   6.890         965.770            
       6.895         744.940                   6.895         961.400            
       6.900         756.360                   6.900         967.500            
       6.905         760.180                   6.905         958.900            
       6.910         771.640                   6.910         963.200            
       6.915         779.280                   6.915         967.500            
       6.920         790.740                   6.920         971.800            
       6.925         813.660                   6.925         971.800            
       6.930         821.300                   6.930         984.700            
       6.935         836.580                   6.935         989.000            
       6.940         848.040                   6.940        1001.900            
       6.945         870.960                   6.945        1014.800            
       6.950         882.420                   6.950        1027.700            
       6.955         901.520                   6.955        1032.000            
       6.960         920.620                   6.960        1053.500            
       6.965         932.080                   6.965        1062.100            
       6.970         955.000                   6.970        1075.000            
       6.975         972.000                   6.975        1095.750            
       6.980         976.050                   6.980        1105.490            
       6.985         992.250                   6.985        1124.970            
       6.990        1000.350                   6.990        1134.710            
       6.995        1008.450                   6.995        1154.190            
       7.000        1012.500                   7.000        1163.930            
       7.005        1012.500                   7.005        1183.410            
       7.010        1000.350                   7.010        1193.150            
       7.015         988.200                   7.015        1202.890            
       7.020         972.000                   7.020        1212.630            
       7.025         943.650                   7.025        1217.500            
       7.030         903.150                   7.030        1212.630            
       7.035         854.550                   7.035        1198.020            
       7.040         801.900                   7.040        1183.410            
       7.045         741.150                   7.045        1163.930            
       7.050         682.500                   7.050        1127.500            
       7.055         600.600                   7.055        1068.870            
       7.060         529.620                   7.060        1010.240            
       7.065         453.180                   7.065         929.060            
       7.070         371.280                   7.070         843.370            
       7.075         278.460                   7.075         739.640            
       7.080         191.100                   7.080         649.440            
       7.085         109.200                   7.085         532.180            
       7.090          57.330                   7.090         410.410            
       7.095           0.000                   7.095         288.640            
       7.100           0.000                   7.100         184.910            
       7.105           0.000                   7.105          94.710            
       7.110           0.000                   7.110          45.100            
       7.115           0.000                   7.115           0.000            
       7.120           0.000                   7.120           0.000            
       7.125           0.000                   7.125           0.000            
       7.130           0.000                   7.130           0.000            
       7.135           0.000                   7.135           0.000            
       7.140           0.000                   7.140           0.000            
       7.145           0.000                   7.145           0.000            
       7.150           0.000                   7.150           0.000            
       7.155           0.000                   7.155           0.000            
       7.160           0.000                   7.160           0.000            
       7.165           0.000                   7.165           0.000            
       7.170           0.000                   7.170           0.000            
       7.175           0.000                   7.175           0.000            
       7.180           0.000                   7.180           0.000            
       7.185           0.000                   7.185           0.000            
       7.190           5.000                   7.190           0.000            
       7.195           0.000                   7.195           0.000            
       7.200           7.500                   7.200           0.000            
       7.205           4.980                   7.205           0.000            
       7.210           0.000                   7.210           0.000            
       7.215           0.000                   7.215           0.000            
       7.220           0.000                   7.220           0.000            
       7.225           0.000                   7.225           0.000            
       7.230           2.490                   7.230           0.000            
       7.235           0.000                   7.235           0.000            
       7.240           0.000                   7.240           0.000            
       7.245           0.000                   7.245           0.000            
       7.250           0.000                   7.250           0.000            
       7.255           0.000                   7.255           0.000            
       7.260           0.000                   7.260           0.000            
       7.265           0.000                   7.265           0.000            
       7.270           0.000                   7.270           0.000            
       7.275           0.000                   7.275           0.000            
       7.280           0.000                   7.280           0.000            
       7.285           0.000                   7.285           0.000            
       7.290           0.000                   7.290           0.000            
       7.295           0.000                   7.295           0.000            
       7.300           0.000                   7.300           0.000            
       7.305           0.000                   7.305           0.000            
       7.310           0.000                   7.310           0.000            
       7.315           0.000                   7.315           0.000            
       7.320           0.000                   7.320           0.000            
       7.325           0.000                   7.325           0.000            
       7.330           0.000                   7.330           0.000            
       7.335           0.000                   7.335           0.000            
       7.340           0.000                   7.340           0.000            
       7.345           0.000                   7.345           0.000            
       7.350           0.000                   7.350           0.000            
       7.355           0.000                   7.355           0.000            
       7.360           0.000                   7.360           0.000            
       7.365           0.000                   7.365           0.000            
       7.370           0.000                   7.370           0.000            
       7.375           0.000                   7.375           0.000            
       7.380           0.000                   7.380           0.000            
       7.385           0.000                   7.385           0.000            
       7.390           0.000                   7.390           0.000            
       7.395           0.000                   7.395           0.000            
       7.400           0.000                   7.400           0.000            
       7.405           0.000                   7.405           0.000            
       7.410           0.000                   7.410           0.000            
       7.415           0.000                   7.415           0.000            
       7.420           0.000                   7.420           0.000            
       7.425           0.000                   7.425           0.000            
       7.430           0.000                   7.430           0.000            
       7.435           0.000                   7.435           0.000            
       7.440           0.000                   7.440           0.000            
       7.445           0.000                   7.445           0.000            
       7.450           0.000                   7.450           0.000            
       7.455           0.000                   7.455           0.000            
       7.460           0.000                   7.460           0.000            
       7.465           0.000                   7.465           0.000            
       7.470           0.000                   7.470           0.000            
       7.475           0.000                   7.475           0.000            
       7.480           0.000                   7.480           0.000            
       7.485           0.000                   7.485           0.000            
       7.490           0.000                   7.490           0.000            
       7.495           0.000                   7.495           0.000            
       7.500           0.000                   7.500           0.000            
       7.505           0.000                   7.505           0.000            
       7.510           0.000                   7.510           0.000            
       7.515           0.000                   7.515           0.000            
       7.520           0.000                   7.520           0.000            
       7.525           0.000                   7.525           0.000            
       7.530           0.000                   7.530           0.000            
       7.535           0.000                   7.535           0.000            
       7.540           0.000                   7.540           0.000            
       7.545           0.000                   7.545           0.000            
       7.550           0.000                   7.550           0.000            
       7.555           0.000                   7.555           0.000            
       7.560           0.000                   7.560           0.000            
       7.565           0.000                   7.565           0.000            
       7.570           0.000                   7.570           0.000            
       7.575           0.000                   7.575           0.000            
       7.580           0.000                   7.580         153.900            
       7.585           8.700                   7.585         675.450            
       7.590         191.400                   7.590        1350.900            
       7.595         626.400                   7.595         931.950            
       7.600         843.900                   7.600         666.900            
       7.605         609.000                   7.605         718.200            
       7.610         556.800                   7.610         752.400            
       7.615         574.200                   7.615         855.000            
       7.620         630.750                   7.620         949.050            
       7.625         743.850                   7.625        1077.300            
       7.630         848.250                   7.630        1239.750            
       7.635         926.550                   7.635        1462.050            
       7.640        1004.850                   7.640        1795.500            
       7.645        1087.500                   7.645        2137.500            
       7.650        1165.600                   7.650        2280.000            
       7.655        1175.000                   7.655        2225.280            
       7.660        1151.500                   7.660        2052.000            
       7.665        1123.300                   7.665        1824.000            
       7.670        1090.400                   7.670        1641.600            
       7.675        1052.800                   7.675        1495.680            
       7.680        1019.900                   7.680        1386.240            
       7.685         977.600                   7.685        1340.640            
       7.690         949.400                   7.690        1322.400            
       7.695         916.500                   7.695        1313.280            
       7.700         878.900                   7.700        1331.520            
       7.705         841.300                   7.705        1349.760            
       7.710         808.400                   7.710        1368.000            
       7.715         784.900                   7.715        1377.120            
       7.720         747.300                   7.720        1368.000            
       7.725         731.620                   7.725        1360.000            
       7.730         709.640                   7.730        1327.360            
       7.735         703.360                   7.735        1300.160            
       7.740         697.080                   7.740        1278.400            
       7.745         700.220                   7.745        1256.640            
       7.750         715.920                   7.750        1234.880            
       7.755         725.340                   7.755        1213.120            
       7.760         734.760                   7.760        1196.800            
       7.765         750.460                   7.765        1169.600            
       7.770         772.440                   7.770        1158.720            
       7.775         785.000                   7.775        1131.520            
       7.780         785.000                   7.780        1109.760            
       7.785         772.440                   7.785        1088.000            
       7.790         766.160                   7.790        1077.120            
       7.795         769.300                   7.795        1055.360            
       7.800         778.720                   7.800        1047.500            
       7.805         775.580                   7.805        1034.930            
       7.810         772.440                   7.810        1026.550            
       7.815         778.720                   7.815        1030.740            
       7.820         785.000                   7.820        1022.360            
       7.825         778.720                   7.825        1026.550            
       7.830         775.580                   7.830        1022.360            
       7.835         769.300                   7.835        1026.550            
       7.840         769.300                   7.840        1022.360            
       7.845         759.880                   7.845        1013.980            
       7.850         750.460                   7.850        1001.410            
       7.855         747.320                   7.855         984.650            
       7.860         734.760                   7.860         976.270            
       7.865         715.920                   7.865         959.510            
       7.870         709.640                   7.870         946.940            
       7.875         705.000                   7.875         937.500            
       7.880         690.900                   7.880         918.750            
       7.885         673.980                   7.885         907.500            
       7.890         662.700                   7.890         892.500            
       7.895         654.240                   7.895         877.500            
       7.900         637.320                   7.900         870.000            
       7.905         626.040                   7.905         855.000            
       7.910         603.480                   7.910         840.000            
       7.915         586.560                   7.915         825.000            
       7.920         558.360                   7.920         813.750            
       7.925         530.160                   7.925         802.500            
       7.930         504.780                   7.930         798.750            
       7.935         479.400                   7.935         787.500            
       7.940         448.380                   7.940         780.000            
       7.945         423.000                   7.945         768.750            
       7.950         402.500                   7.950         772.500            
       7.955         359.030                   7.955         757.050            
       7.960         331.660                   7.960         753.960            
       7.965         299.460                   7.965         744.690            
       7.970         268.870                   7.970         744.690            
       7.975         244.720                   7.975         744.690            
       7.980         209.300                   7.980         741.600            
       7.985         173.880                   7.985         732.330            
       7.990         146.510                   7.990         732.330            
       7.995         114.310                   7.995         719.970            
       8.000          88.550                   8.000         732.330            
       8.005          64.400                   8.005         729.240            
       8.010          16.100                   8.010         726.150            
       8.015           0.000                   8.015         723.060            
       8.020           0.000                   8.020         719.970            
       8.025           0.000                   8.025         721.680            
       8.030           0.000                   8.030         727.500            
       8.035           0.000                   8.035         712.950            
       8.040           0.000                   8.040         715.860            
       8.045           0.000                   8.045         715.860            
       8.050           0.000                   8.050         712.950            
       8.055           0.000                   8.055         707.130            
       8.060           0.000                   8.060         704.220            
       8.065           0.000                   8.065         701.310            
       8.070           0.000                   8.070         689.670            
       8.075           0.000                   8.075         683.850            
       8.080           0.000                   8.080         680.940            
       8.085           0.000                   8.085         669.300            
       8.090           0.000                   8.090         669.300            
       8.095           0.000                   8.095         669.300            
       8.100           0.000                   8.100         660.000            
       8.105           0.000                   8.105         649.440            
       8.110           0.000                   8.110         654.720            
       8.115           0.000                   8.115         641.520            
       8.120           0.000                   8.120         638.880            
       8.125           0.000                   8.125         638.880            
       8.130           0.000                   8.130         641.520            
       8.135           0.000                   8.135         636.240            
       8.140           0.000                   8.140         638.880            
       8.145           0.000                   8.145         638.880            
       8.150           0.000                   8.150         641.520            
       8.155           0.000                   8.155         644.160            
       8.160           0.000                   8.160         649.440            
       8.165           0.000                   8.165         649.440            
       8.170           0.000                   8.170         657.360            
       8.175           0.000                   8.175         659.340            
       8.180           0.000                   8.180         662.310            
       8.185           0.000                   8.185         662.310            
       8.190           0.000                   8.190         662.310            
       8.195           0.000                   8.195         671.220            
       8.200           0.000                   8.200         680.130            
       8.205           0.000                   8.205         686.070            
       8.210           0.000                   8.210         692.010            
       8.215           0.000                   8.215         697.950            
       8.220           0.000                   8.220         709.830            
       8.225           0.000                   8.225         709.830            
       8.230           0.000                   8.230         721.710            
       8.235           0.000                   8.235         724.680            
       8.240           0.000                   8.240         739.530            
       8.245           0.000                   8.245         742.500            
       8.250           0.000                   8.250         759.220            
       8.255           0.000                   8.255         756.030            
       8.260           0.000                   8.260         762.410            
       8.265           0.000                   8.265         762.410            
       8.270           0.000                   8.270         768.790            
       8.275           0.000                   8.275         771.980            
       8.280           0.000                   8.280         781.550            
       8.285           0.000                   8.285         775.170            
       8.290           0.000                   8.290         784.740            
       8.295           0.000                   8.295         787.930            
       8.300           0.000                   8.300         787.930            
       8.305           0.000                   8.305         791.120            
       8.310           0.000                   8.310         797.500            
       8.315           0.000                   8.315         794.310            
       8.320           0.000                   8.320         794.310            
       8.325           0.000                   8.325         805.000            
       8.330           0.000                   8.330         795.340            
       8.335           0.000                   8.335         788.900            
       8.340          19.350                   8.340         788.900            
       8.345          43.860                   8.345         788.900            
       8.350          72.240                   8.350         785.680            
       8.355          94.170                   8.355         788.900            
       8.360         107.070                   8.360         782.460            
       8.365         126.420                   8.365         779.240            
       8.370         136.740                   8.370         776.020            
       8.375         161.250                   8.375         759.920            
       8.380         197.370                   8.380         747.040            
       8.385         241.230                   8.385         734.160            
       8.390         283.800                   8.390         721.280            
       8.395         322.500                   8.395         692.300            
       8.400         359.100                   8.400         675.000            
       8.405         400.680                   8.405         639.900            
       8.410         446.040                   8.410         612.900            
       8.415         487.620                   8.415         588.600            
       8.420         532.980                   8.420         550.800            
       8.425         574.560                   8.425         521.100            
       8.430         616.140                   8.430         491.400            
       8.435         653.940                   8.435         459.000            
       8.440         699.300                   8.440         429.300            
       8.445         737.100                   8.445         399.600            
       8.450         774.900                   8.450         369.900            
       8.455         812.700                   8.455         337.500            
       8.460         846.720                   8.460         307.800            
       8.465         892.080                   8.465         272.700            
       8.470         945.000                   8.470         245.700            
       8.475         999.600                   8.475         230.000            
       8.480        1035.300                   8.480         196.880            
       8.485        1081.200                   8.485         161.920            
       8.490        1122.000                   8.490         132.480            
       8.495        1152.600                   8.495         104.880            
       8.500        1188.300                   8.500          81.880            
       8.505        1213.800                   8.505          57.040            
       8.510        1239.300                   8.510          14.720            
       8.515        1259.700                   8.515           0.000            
       8.520        1264.800                   8.520           0.000            
       8.525        1259.700                   8.525           0.000            
       8.530        1264.800                   8.530           0.000            
       8.535        1264.800                   8.535           0.000            
       8.540        1259.700                   8.540           0.000            
       8.545        1275.000                   8.545           0.000            
       8.550        1270.000                   8.550           0.000            
       8.555        1259.840                   8.555           0.000            
       8.560        1264.920                   8.560           0.000            
       8.565        1264.920                   8.565           0.000            
       8.570        1264.920                   8.570           0.000            
       8.575        1270.000                   8.575           0.000            
       8.580        1259.840                   8.580           0.000            
       8.585        1254.760                   8.585           0.000            
       8.590        1239.520                   8.590           0.000            
       8.595        1224.280                   8.595           0.000            
       8.600        1214.120                   8.600           0.000            
       8.605        1193.800                   8.605           0.000            
       8.610        1178.560                   8.610           0.000            
       8.615        1158.240                   8.615           0.000            
       8.620        1132.840                   8.620           0.000            
       8.625        1125.000                   8.625           0.000            
       8.630        1093.500                   8.630           0.000            
       8.635        1071.000                   8.635           0.000            
       8.640        1044.000                   8.640           0.000            
       8.645        1026.000                   8.645           0.000            
       8.650         999.000                   8.650           0.000            
       8.655         972.000                   8.655           0.000            
       8.660         945.000                   8.660           0.000            
       8.665         913.500                   8.665           0.000            
       8.670         895.500                   8.670           0.000            
       8.675         882.000                   8.675           0.000            
       8.680         859.500                   8.680           0.000            
       8.685         841.500                   8.685           0.000            
       8.690         823.500                   8.690           0.000            
       8.695         810.000                   8.695           0.000            
       8.700         812.170                   8.700           0.000            
       8.705         798.690                   8.705           0.000            
       8.710         788.580                   8.710           0.000            
       8.715         781.840                   8.715           0.000            
       8.720         781.840                   8.720           0.000            
       8.725         775.100                   8.725           0.000            
       8.730         778.470                   8.730           0.000            
       8.735         775.100                   8.735           0.000            
       8.740         781.840                   8.740           0.000            
       8.745         785.210                   8.745           0.000            
       8.750         788.580                   8.750           0.000            
       8.755         802.060                   8.755           0.000            
       8.760         822.280                   8.760           0.000            
       8.765         822.280                   8.765           0.000            
       8.770         842.500                   8.770           0.000            
       8.775         867.080                   8.775           0.000            
       8.780         871.170                   8.780           0.000            
       8.785         871.170                   8.785           0.000            
       8.790         895.710                   8.790           0.000            
       8.795         903.890                   8.795           0.000            
       8.800         924.340                   8.800           0.000            
       8.805         928.430                   8.805           0.000            
       8.810         948.880                   8.810           0.000            
       8.815         957.060                   8.815           0.000            
       8.820         973.420                   8.820           0.000            
       8.825         993.870                   8.825           0.000            
       8.830         997.960                   8.830           0.000            
       8.835        1010.230                   8.835           0.000            
       8.840        1018.410                   8.840           0.000            
       8.845        1022.500                   8.845           0.000            
       8.850        1025.050                   8.850           0.000            
       8.855        1037.500                   8.855           0.000            
       8.860        1029.200                   8.860           0.000            
       8.865        1029.200                   8.865           0.000            
       8.870        1025.050                   8.870           0.000            
       8.875        1025.050                   8.875           0.000            
       8.880        1020.900                   8.880           0.000            
       8.885        1004.300                   8.885           0.000            
       8.890         987.700                   8.890           0.000            
       8.895         983.550                   8.895           0.000            
       8.900         975.250                   8.900           0.000            
       8.905         958.650                   8.905           0.000            
       8.910         954.500                   8.910           0.000            
       8.915         942.050                   8.915           0.000            
       8.920         929.600                   8.920           0.000            
       8.925         927.500                   8.925           0.000            
       8.930         912.660                   8.930           0.000            
       8.935         894.110                   8.935           0.000            
       8.940         890.400                   8.940           0.000            
       8.945         879.270                   8.945           0.000            
       8.950         879.270                   8.950           0.000            
       8.955         871.850                   8.955           0.000            
       8.960         871.850                   8.960           0.000            
       8.965         864.430                   8.965           0.000            
       8.970         864.430                   8.970           0.000            
       8.975         860.720                   8.975           0.000            
       8.980         864.430                   8.980           0.000            
       8.985         864.430                   8.985           0.000            
       8.990         864.430                   8.990           0.000            
       8.995         864.430                   8.995           0.000            
       9.000         872.500                   9.000           0.000            
       9.005         865.520                   9.005           0.000            
       9.010         872.500                   9.010           0.000            
       9.015         872.500                   9.015           0.000            
       9.020         865.520                   9.020           0.000            
       9.025         872.500                   9.025           0.000            
       9.030         862.030                   9.030           5.730            
       9.035         862.030                   9.035          36.290            
       9.040         851.560                   9.040          82.130            
       9.045         837.600                   9.045         133.700            
       9.050         820.150                   9.050         191.000            
       9.055         806.190                   9.055         276.950            
       9.060         774.780                   9.060         360.990            
       9.065         746.860                   9.065         425.930            
       9.070         722.430                   9.070         477.500            
       9.075         687.500                   9.075         527.520            
       9.080         643.500                   9.080         565.200            
       9.085         607.750                   9.085         631.140            
       9.090         558.250                   9.090         692.370            
       9.095         517.000                   9.095         744.180            
       9.100         478.500                   9.100         791.280            
       9.105         442.750                   9.105         833.670            
       9.110         396.000                   9.110         885.480            
       9.115         360.250                   9.115         937.290            
       9.120         321.750                   9.120         979.680            
       9.125         283.250                   9.125        1022.070            
       9.130         247.500                   9.130        1055.040            
       9.135         211.750                   9.135        1102.140            
       9.140         189.750                   9.140        1139.820            
       9.145         165.000                   9.145        1177.500            
       9.150         145.000                   9.150        1218.240            
       9.155         119.480                   9.155        1246.440            
       9.160         102.080                   9.160        1285.920            
       9.165          84.680                   9.165        1319.760            
       9.170          69.600                   9.170        1353.600            
       9.175          24.940                   9.175        1376.160            
       9.180          19.720                   9.180        1398.720            
       9.185           4.640                   9.185        1410.000            
       9.190           0.000                   9.190        1410.000            
       9.195           0.000                   9.195        1404.360            
       9.200           0.000                   9.200        1393.080            
       9.205           0.000                   9.205        1381.800            
       9.210           0.000                   9.210        1342.320            
       9.215           0.000                   9.215        1314.120            
       9.220           0.000                   9.220        1280.280            
       9.225           0.000                   9.225        1257.500            
       9.230           0.000                   9.230        1212.230            
       9.235           0.000                   9.235        1182.050            
       9.240           0.000                   9.240        1141.810            
       9.245           0.000                   9.245        1116.660            
       9.250           0.000                   9.250        1086.480            
       9.255           0.000                   9.255        1056.300            
       9.260           0.000                   9.260        1026.120            
       9.265           0.000                   9.265        1000.970            
       9.270           0.000                   9.270         980.850            
       9.275           0.000                   9.275         960.730            
       9.280           0.000                   9.280         940.610            
       9.285           0.000                   9.285         925.520            
       9.290           0.000                   9.290         905.400            
       9.295           0.000                   9.295         885.280            
       9.300           0.000                   9.300         872.500            
       9.305           2.500                   9.305         855.050            
       9.310           0.000                   9.310         844.580            
       9.315           0.000                   9.315         834.110            
       9.320           0.000                   9.320         823.640            
       9.325           0.000                   9.325         823.640            
       9.330           0.000                   9.330         823.640            
       9.335           0.000                   9.335         809.680            
       9.340           0.000                   9.340         809.680            
       9.345           0.000                   9.345         809.680            
       9.350           0.000                   9.350         809.680            
       9.355           0.000                   9.355         806.190            
       9.360           0.000                   9.360         799.210            
       9.365           0.000                   9.365         806.190            
       9.370           0.000                   9.370         809.680            
       9.375           5.000                   9.375         820.600            
       9.380           2.500                   9.380         816.870            
       9.385           0.000                   9.385         824.330            
       9.390           0.000                   9.390         839.250            
       9.395           0.000                   9.395         839.250            
       9.400           0.000                   9.400         854.170            
       9.405           0.000                   9.405         861.630            
       9.410           0.000                   9.410         876.550            
       9.415           0.000                   9.415         884.010            
       9.420           0.000                   9.420         895.200            
       9.425           0.000                   9.425         902.660            
       9.430           0.000                   9.430         913.850            
       9.435           0.000                   9.435         917.580            
       9.440           0.000                   9.440         928.770            
       9.445           0.000                   9.445         932.500            
       9.450           0.000                   9.450         945.000            
       9.455           0.000                   9.455         937.440            
       9.460           0.000                   9.460         941.220            
       9.465           0.000                   9.465         945.000            
       9.470           0.000                   9.470         937.440            
       9.475           0.000                   9.475         933.660            
       9.480           0.000                   9.480         937.440            
       9.485           0.000                   9.485         922.320            
       9.490           0.000                   9.490         918.540            
       9.495           0.000                   9.495         918.540            
       9.500           0.000                   9.500         907.200            
       9.505           0.000                   9.505         895.860            
       9.510           0.000                   9.510         892.080            
       9.515           0.000                   9.515         884.520            
       9.520           0.000                   9.520         873.180            
       9.525           0.000                   9.525         870.000            
       9.530           0.000                   9.530         856.080            
       9.535           0.000                   9.535         842.160            
       9.540           0.000                   9.540         835.200            
       9.545           0.000                   9.545         824.760            
       9.550           0.000                   9.550         814.320            
       9.555           0.000                   9.555         810.840            
       9.560           0.000                   9.560         803.880            
       9.565           0.000                   9.565         796.920            
       9.570           0.000                   9.570         789.960            
       9.575           0.000                   9.575         779.520            
       9.580           0.000                   9.580         769.080            
       9.585           0.000                   9.585         765.600            
       9.590           0.000                   9.590         765.600            
       9.595           0.000                   9.595         762.120            
       9.600           0.000                   9.600         757.500            
       9.605           0.000                   9.605         748.410            
       9.610           0.000                   9.610         745.380            
       9.615           0.000                   9.615         754.470            
       9.620           0.000                   9.620         745.380            
       9.625           0.000                   9.625         742.350            
       9.630           0.000                   9.630         745.380            
       9.635           0.000                   9.635         742.350            
       9.640           0.000                   9.640         745.380            
       9.645           0.000                   9.645         742.350            
       9.650           0.000                   9.650         751.440            
       9.655           0.000                   9.655         754.470            
       9.660           0.000                   9.660         751.440            
       9.665           0.000                   9.665         754.470            
       9.670           0.000                   9.670         757.500            
       9.675           0.000                   9.675         764.240            
       9.680           0.000                   9.680         764.240            
       9.685           0.000                   9.685         777.360            
       9.690           0.000                   9.690         777.360            
       9.695           0.000                   9.695         777.360            
       9.700           0.000                   9.700         787.200            
       9.705           0.000                   9.705         790.480            
       9.710           0.000                   9.710         793.760            
       9.715           0.000                   9.715         800.320            
       9.720           0.000                   9.720         800.320            
       9.725           0.000                   9.725         803.600            
       9.730           0.000                   9.730         806.880            
       9.735           0.000                   9.735         813.440            
       9.740           0.000                   9.740         820.000            
       9.745           0.000                   9.745         816.720            
       9.750           0.000                   9.750         829.170            
       9.755           0.000                   9.755         825.840            
       9.760           0.000                   9.760         825.840            
       9.765           0.000                   9.765         825.840            
       9.770           0.000                   9.770         832.500            
       9.775           0.000                   9.775         829.170            
       9.780           0.000                   9.780         825.840            
       9.785           0.000                   9.785         829.170            
       9.790           0.000                   9.790         819.180            
       9.795           0.000                   9.795         809.190            
       9.800           5.000                   9.800         809.190            
       9.805          15.000                   9.805         799.200            
       9.810          32.500                   9.810         792.540            
       9.815          50.000                   9.815         785.880            
       9.820          62.500                   9.820         772.560            
       9.825          82.650                   9.825         767.500            
       9.830          94.050                   9.830         742.940            
       9.835         108.300                   9.835         733.730            
       9.840         142.500                   9.840         712.240            
       9.845         182.400                   9.845         696.890            
       9.850         210.900                   9.850         678.470            
       9.855         253.650                   9.855         663.120            
       9.860         304.950                   9.860         644.700            
       9.865         356.250                   9.865         623.210            
       9.870         418.950                   9.870         614.000            
       9.875         481.650                   9.875         586.370            
       9.880         532.950                   9.880         561.810            
       9.885         601.350                   9.885         534.180            
       9.890         658.350                   9.890         497.340            
       9.895         712.500                   9.895         469.710            
       9.900         761.250                   9.900         442.500            
       9.905         796.050                   9.905         389.400            
       9.910         839.550                   9.910         348.690            
       9.915         861.300                   9.915         300.900            
       9.920         896.100                   9.920         261.960            
       9.925         926.550                   9.925         215.940            
       9.930         952.650                   9.930         184.080            
       9.935         974.400                   9.935         136.290            
       9.940         996.150                   9.940         106.200            
       9.945        1022.250                   9.945          69.030            
       9.950        1035.300                   9.950          21.240            
       9.955        1048.350                   9.955           0.000            
       9.960        1061.400                   9.960           0.000            
       9.965        1078.800                   9.965           0.000            
       9.970        1087.500                   9.970           0.000            
       9.975        1095.150                   9.975           0.000            
       9.980        1099.620                   9.980           0.000            
       9.985        1104.090                   9.985           0.000            
       9.990        1104.090                   9.990           0.000            
       9.995        1104.090                   9.995           0.000            
      10.000        1113.030                  10.000           0.000            
      10.005        1108.560                  10.005           0.000            
      10.010        1113.030                  10.010           0.000            
      10.015        1117.500                  10.015           0.000            
      10.020        1104.090                  10.020           0.000            
      10.025        1099.620                  10.025           0.000            
      10.030        1099.620                  10.030           0.000            
      10.035        1104.090                  10.035           0.000            
      10.040        1104.090                  10.040           0.000            
      10.045        1099.620                  10.045           0.000            
      10.050        1110.000                  10.050           0.000            
      10.055        1096.680                  10.055           0.000            
      10.060        1083.360                  10.060           0.000            
      10.065        1078.920                  10.065           0.000            
      10.070        1083.360                  10.070           0.000            
      10.075        1065.600                  10.075           0.000            
      10.080        1065.600                  10.080           0.000            
      10.085        1052.280                  10.085           0.000            
      10.090        1052.280                  10.090           0.000            
      10.095        1043.400                  10.095           0.000            
      10.100        1047.840                  10.100           0.000            
      10.105        1038.960                  10.105           0.000            
      10.110        1034.520                  10.110           0.000            
      10.115        1030.080                  10.115           0.000            
      10.120        1030.080                  10.120           0.000            
      10.125        1035.000                  10.125           0.000            
      10.130        1022.580                  10.130           0.000            
      10.135        1022.580                  10.135           0.000            
      10.140        1018.440                  10.140           0.000            
      10.145        1022.580                  10.145           0.000            
      10.150        1014.300                  10.150           0.000            
      10.155        1014.300                  10.155           0.000            
      10.160        1006.020                  10.160           0.000            
      10.165        1014.300                  10.165           0.000            
      10.170        1006.020                  10.170           0.000            
      10.175        1001.880                  10.175           0.000            
      10.180         993.600                  10.180           0.000            
      10.185        1001.880                  10.185           0.000            
      10.190        1001.880                  10.190           0.000            
      10.195        1006.020                  10.195           0.000            
      10.200        1005.960                  10.200           0.000            
      10.205         993.840                  10.205           0.000            
      10.210         993.840                  10.210           0.000            
      10.215         997.880                  10.215           0.000            
      10.220         993.840                  10.220           0.000            
      10.225        1010.000                  10.225           0.000            
      10.230         993.840                  10.230           0.000            
      10.235         993.840                  10.235           0.000            
      10.240         989.800                  10.240           0.000            
      10.245         985.760                  10.245           0.000            
      10.250         985.760                  10.250           0.000            
      10.255         985.760                  10.255           0.000            
      10.260         981.720                  10.260           0.000            
      10.265         981.720                  10.265           0.000            
      10.270         973.640                  10.270           0.000            
      10.275         980.000                  10.275           0.000            
      10.280         968.240                  10.280           0.000            
      10.285         972.160                  10.285           0.000            
      10.290         964.320                  10.290           0.000            
      10.295         972.160                  10.295           0.000            
      10.300         968.240                  10.300           0.000            
      10.305         972.160                  10.305           0.000            
      10.310         972.160                  10.310           0.000            
      10.315         968.240                  10.315           0.000            
      10.320         972.160                  10.320           0.000            
      10.325         972.160                  10.325           0.000            
      10.330         972.160                  10.330           0.000            
      10.335         972.160                  10.335           0.000            
      10.340         968.240                  10.340           0.000            
      10.345         972.160                  10.345           0.000            
      10.350         982.500                  10.350           0.000            
      10.355         970.710                  10.355           0.000            
      10.360         974.640                  10.360           0.000            
      10.365         966.780                  10.365           0.000            
      10.370         974.640                  10.370           0.000            
      10.375         974.640                  10.375           0.000            
      10.380         966.780                  10.380           0.000            
      10.385         966.780                  10.385           0.000            
      10.390         974.640                  10.390           0.000            
      10.395         982.500                  10.395           0.000            
      10.400         974.640                  10.400           0.000            
      10.405         974.640                  10.405           0.000            
      10.410         974.640                  10.410           0.000            
      10.415         974.640                  10.415           0.000            
      10.420         978.570                  10.420           0.000            
      10.425         981.720                  10.425           0.000            
      10.430         981.720                  10.430           0.000            
      10.435         981.720                  10.435           0.000            
      10.440         989.800                  10.440           0.000            
      10.445         981.720                  10.445           0.000            
      10.450         989.800                  10.450           0.000            
      10.455         993.840                  10.455           0.000            
      10.460         989.800                  10.460           0.000            
      10.465         993.840                  10.465           0.000            
      10.470         993.840                  10.470           0.000            
      10.475         997.880                  10.475           0.000            
      10.480         997.880                  10.480           0.000            
      10.485        1001.920                  10.485           0.000            
      10.490        1010.000                  10.490           0.000            
      10.495        1010.000                  10.495           0.000            
      10.500        1023.400                  10.500           0.000            
      10.505        1019.100                  10.505           0.000            
      10.510        1019.100                  10.510           0.000            
      10.515        1023.400                  10.515           0.000            
      10.520        1032.000                  10.520           0.000            
      10.525        1032.000                  10.525           0.000            
      10.530        1040.600                  10.530           0.000            
      10.535        1049.200                  10.535           0.000            
      10.540        1053.500                  10.540           0.000            
      10.545        1053.500                  10.545           0.000            
      10.550        1057.800                  10.550           0.000            
      10.555        1062.100                  10.555           0.000            
      10.560        1075.000                  10.560           0.000            
      10.565        1066.400                  10.565           0.000            
      10.570        1066.400                  10.570           0.000            
      10.575        1074.480                  10.575           0.000            
      10.580        1074.480                  10.580           0.000            
      10.585        1078.920                  10.585           0.000            
      10.590        1074.480                  10.590           0.000            
      10.595        1078.920                  10.595           0.000            
      10.600        1083.360                  10.600           0.000            
      10.605        1083.360                  10.605           0.000            
      10.610        1092.240                  10.610           0.000            
      10.615        1096.680                  10.615           0.000            
      10.620        1096.680                  10.620           0.000            
      10.625        1096.680                  10.625           0.000            
      10.630        1101.120                  10.630           0.000            
      10.635        1101.120                  10.635           0.000            
      10.640        1105.560                  10.640           0.000            
      10.645        1110.000                  10.645           0.000            
      10.650        1111.280                  10.650           0.000            
      10.655        1101.700                  10.655           0.000            
      10.660        1106.490                  10.660           0.000            
      10.665        1106.490                  10.665           4.960            
      10.670        1111.280                  10.670          12.480            
      10.675        1120.860                  10.675          17.440            
      10.680        1125.650                  10.680          24.960            
      10.685        1125.650                  10.685          24.960            
      10.690        1135.230                  10.690          29.920            
      10.695        1144.810                  10.695          34.880            
      10.700        1149.600                  10.700          40.000            
      10.705        1163.970                  10.705          40.000            
      10.710        1173.550                  10.710          37.440            
      10.715        1183.130                  10.715          40.000            
      10.720        1197.500                  10.720          40.000            
      10.725        1214.290                  10.725          42.230            
      10.730        1220.100                  10.730          37.310            
      10.735        1243.340                  10.735          39.770            
      10.740        1260.770                  10.740          42.230            
      10.745        1272.390                  10.745          42.230            
      10.750        1289.820                  10.750          42.230            
      10.755        1324.680                  10.755          47.150            
      10.760        1342.110                  10.760          49.610            
      10.765        1359.540                  10.765          52.480            
      10.770        1382.780                  10.770          59.860            
      10.775        1400.210                  10.775          64.780            
      10.780        1417.640                  10.780          72.160            
      10.785        1429.260                  10.785          79.950            
      10.790        1440.880                  10.790          92.250            
      10.795        1452.500                  10.795         102.500            
      10.800        1461.630                  10.800         118.900            
      10.805        1461.630                  10.805         123.000            
      10.810        1467.500                  10.810         151.700            
      10.815        1455.760                  10.815         176.300            
      10.820        1455.760                  10.820         213.200            
      10.825        1444.020                  10.825         264.450            
      10.830        1420.540                  10.830         309.550            
      10.835        1408.800                  10.835         358.750            
      10.840        1379.450                  10.840         399.750            
      10.845        1355.970                  10.845         426.400            
      10.850        1320.750                  10.850         451.000            
      10.855        1279.660                  10.855         479.700            
      10.860        1232.700                  10.860         485.850            
      10.865        1185.740                  10.865         498.150            
      10.870        1132.910                  10.870         512.500            
      10.875        1087.500                  10.875         529.200            
      10.880        1009.200                  10.880         532.140            
      10.885         930.900                  10.885         543.900            
      10.890         856.950                  10.890         567.420            
      10.895         761.250                  10.895         582.120            
      10.900         674.250                  10.900         602.700            
      10.905         587.250                  10.905         629.160            
      10.910         504.600                  10.910         649.740            
      10.915         426.300                  10.915         664.440            
      10.920         369.750                  10.920         679.140            
      10.925         304.500                  10.925         696.780            
      10.930         247.950                  10.930         702.660            
      10.935         195.750                  10.935         711.480            
      10.940         147.900                  10.940         717.360            
      10.945         117.450                  10.945         735.000            
      10.950          90.000                  10.950         746.460            
      10.955          64.800                  10.955         749.650            
      10.960          19.800                  10.960         756.030            
      10.965           7.200                  10.965         762.410            
      10.970           0.000                  10.970         768.790            
      10.975           0.000                  10.975         775.170            
      10.980           0.000                  10.980         771.980            
      10.985           0.000                  10.985         784.740            
      10.990           0.000                  10.990         794.310            
      10.995           0.000                  10.995         787.930            
      11.000           0.000                  11.000         794.310            
      11.005           0.000                  11.005         787.930            
      11.010           0.000                  11.010         794.310            
      11.015           0.000                  11.015         797.500            
      11.020           0.000                  11.020         794.310            
      11.025           0.000                  11.025         797.880            
      11.030           0.000                  11.030         794.610            
      11.035           0.000                  11.035         794.610            
      11.040           0.000                  11.040         797.880            
      11.045           0.000                  11.045         794.610            
      11.050           0.000                  11.050         801.150            
      11.055           0.000                  11.055         794.610            
      11.060           0.000                  11.060         804.420            
      11.065           0.000                  11.065         804.420            
      11.070           0.000                  11.070         807.690            
      11.075           0.000                  11.075         810.960            
      11.080           0.000                  11.080         807.690            
      11.085           0.000                  11.085         810.960            
      11.090           0.000                  11.090         810.960            
      11.095           0.000                  11.095         817.500            
      11.100           0.000                  11.100         824.850            
      11.105           0.000                  11.105         821.340            
      11.110           0.000                  11.110         828.360            
      11.115           0.000                  11.115         831.870            
      11.120           0.000                  11.120         831.870            
      11.125           0.000                  11.125         838.890            
      11.130           0.000                  11.130         852.930            
      11.135           0.000                  11.135         849.420            
      11.140           0.000                  11.140         856.440            
      11.145           0.000                  11.145         859.950            
      11.150           0.000                  11.150         866.970            
      11.155           0.000                  11.155         866.970            
      11.160           0.000                  11.160         866.970            
      11.165           0.000                  11.165         877.500            
      11.170           0.000                  11.170         873.990            
************.***    ********.**               11.175         881.460            
************.***    ********.**               11.180         885.000            
************.***    ********.**               11.185         874.380            
************.***    ********.**               11.190         874.380            
************.***    ********.**               11.195         874.380            
************.***    ********.**               11.200         874.380            
************.***    ********.**               11.205         867.300            
************.***    ********.**               11.210         874.380            
************.***    ********.**               11.215         867.300            
************.***    ********.**               11.220         863.760            
************.***    ********.**               11.225         863.760            
************.***    ********.**               11.230         856.680            
************.***    ********.**               11.235         853.140            
************.***    ********.**               11.240         849.600            
************.***    ********.**               11.245         838.980            
************.***    ********.**               11.250         842.500            
************.***    ********.**               11.255         829.020            
************.***    ********.**               11.260         822.280            
************.***    ********.**               11.265         822.280            
************.***    ********.**               11.270         818.910            
************.***    ********.**               11.275         812.170            
************.***    ********.**               11.280         812.170            
************.***    ********.**               11.285         808.800            
************.***    ********.**               11.290         808.800            
************.***    ********.**               11.295         798.690            
************.***    ********.**               11.300         798.690            
************.***    ********.**               11.305         802.060            
************.***    ********.**               11.310         791.950            
************.***    ********.**               11.315         788.580            
************.***    ********.**               11.320         788.580            
************.***    ********.**               11.325         787.500            
************.***    ********.**               11.330         778.050            
************.***    ********.**               11.335         774.900            
************.***    ********.**               11.340         768.600            
************.***    ********.**               11.345         759.150            
************.***    ********.**               11.350         749.700            
************.***    ********.**               11.355         746.550            
************.***    ********.**               11.360         733.950            
************.***    ********.**               11.365         727.650            
************.***    ********.**               11.370         724.500            
************.***    ********.**               11.375         711.900            
************.***    ********.**               11.380         708.750            
************.***    ********.**               11.385         702.450            
************.***    ********.**               11.390         708.750            
************.***    ********.**               11.395         702.450            
