File: bi2   18.02.20  02:55:14
Comment: bi2
                    P1Y374-L                                P1Y373-R                                
Time[secs]          Force[N]            Time[secs]          Force[N]            
       0.000         532.500                   0.000         511.200            
       0.005         519.720                   0.005         506.940            
       0.010         521.850                   0.010         506.940            
       0.015         521.850                   0.015         511.200            
       0.020         515.460                   0.020         511.200            
       0.025         515.460                   0.025         515.460            
       0.030         521.850                   0.030         523.980            
       0.035         511.200                   0.035         519.720            
       0.040         513.330                   0.040         523.980            
       0.045         500.550                   0.045         521.850            
       0.050         509.070                   0.050         526.110            
       0.055         511.200                   0.055         519.720            
       0.060         515.460                   0.060         532.500            
       0.065         511.200                   0.065         528.240            
       0.070         511.200                   0.070         526.110            
       0.075         518.320                   0.075         533.200            
       0.080         512.050                   0.080         533.200            
       0.085         512.050                   0.085         537.500            
       0.090         516.230                   0.090         531.050            
       0.095         512.050                   0.095         531.050            
       0.100         514.140                   0.100         533.200            
       0.105         516.230                   0.105         537.500            
       0.110         518.320                   0.110         533.200            
       0.115         518.320                   0.115         526.750            
       0.120         514.140                   0.120         531.050            
       0.125         516.230                   0.125         533.200            
       0.130         522.500                   0.130         533.200            
       0.135         522.500                   0.135         531.050            
       0.140         518.320                   0.140         531.050            
       0.145         522.500                   0.145         531.050            
       0.150         535.000                   0.150         540.000            
       0.155         528.580                   0.155         533.520            
       0.160         522.160                   0.160         529.200            
       0.165         515.740                   0.165         527.040            
       0.170         522.160                   0.170         529.200            
       0.175         522.160                   0.175         527.040            
       0.180         524.300                   0.180         524.880            
       0.185         517.880                   0.185         524.880            
       0.190         515.740                   0.190         527.040            
       0.195         515.740                   0.195         527.040            
       0.200         517.880                   0.200         516.240            
       0.205         513.600                   0.205         527.040            
       0.210         522.160                   0.210         518.400            
       0.215         517.880                   0.215         518.400            
       0.220         517.880                   0.220         520.560            
       0.225         526.440                   0.225         525.000            
       0.230         526.440                   0.230         520.800            
       0.235         524.300                   0.235         518.700            
       0.240         524.300                   0.240         518.700            
       0.245         524.300                   0.245         518.700            
       0.250         524.300                   0.250         516.600            
       0.255         522.160                   0.255         518.700            
       0.260         535.000                   0.260         525.000            
       0.265         524.300                   0.265         520.800            
       0.270         526.440                   0.270         516.600            
       0.275         526.440                   0.275         514.500            
       0.280         524.300                   0.280         518.700            
       0.285         522.160                   0.285         518.700            
       0.290         524.300                   0.290         514.500            
       0.295         526.440                   0.295         518.700            
       0.300         535.990                   0.300         515.840            
       0.305         529.480                   0.305         513.760            
       0.310         522.970                   0.310         520.000            
       0.315         529.480                   0.315         509.600            
       0.320         522.970                   0.320         509.600            
       0.325         529.480                   0.325         501.280            
       0.330         533.820                   0.330         511.680            
       0.335         531.650                   0.335         503.360            
       0.340         533.820                   0.340         505.440            
       0.345         531.650                   0.345         509.600            
       0.350         529.480                   0.350         509.600            
       0.355         542.500                   0.355         505.440            
       0.360         535.990                   0.360         503.360            
       0.365         538.160                   0.365         509.600            
       0.370         538.160                   0.370         501.280            
       0.375         545.600                   0.375         512.500            
       0.380         539.000                   0.380         504.300            
       0.385         550.000                   0.385         506.350            
       0.390         539.000                   0.390         508.400            
       0.395         545.600                   0.395         502.250            
       0.400         536.800                   0.400         496.100            
       0.405         545.600                   0.405         498.150            
       0.410         541.200                   0.410         494.050            
       0.415         545.600                   0.415         498.150            
       0.420         541.200                   0.420         498.150            
       0.425         543.400                   0.425         502.250            
       0.430         541.200                   0.430         496.100            
       0.435         550.000                   0.435         494.050            
       0.440         543.400                   0.440         494.050            
       0.445         545.600                   0.445         494.050            
       0.450         555.000                   0.450         502.500            
       0.455         541.680                   0.455         502.500            
       0.460         546.120                   0.460         496.470            
       0.465         543.900                   0.465         496.470            
       0.470         546.120                   0.470         498.480            
       0.475         546.120                   0.475         494.460            
       0.480         543.900                   0.480         496.470            
       0.485         548.340                   0.485         492.450            
       0.490         543.900                   0.490         498.480            
       0.495         550.560                   0.495         498.480            
       0.500         546.120                   0.500         496.470            
       0.505         548.340                   0.505         488.430            
       0.510         546.120                   0.510         498.480            
       0.515         546.120                   0.515         488.430            
       0.520         546.120                   0.520         488.430            
       0.525         552.500                   0.525         491.530            
       0.530         552.500                   0.530         491.530            
       0.535         548.080                   0.535         489.540            
       0.540         545.870                   0.540         485.560            
       0.545         545.870                   0.545         489.540            
       0.550         541.450                   0.550         485.560            
       0.555         545.870                   0.555         491.530            
       0.560         552.500                   0.560         485.560            
       0.565         548.080                   0.565         491.530            
       0.570         543.660                   0.570         497.500            
       0.575         548.080                   0.575         489.540            
       0.580         545.870                   0.580         485.560            
       0.585         552.500                   0.585         491.530            
       0.590         548.080                   0.590         491.530            
       0.595         548.080                   0.595         485.560            
       0.600         550.560                   0.600         497.500            
       0.605         548.340                   0.605         489.540            
       0.610         548.340                   0.610         493.520            
       0.615         550.560                   0.615         485.560            
       0.620         543.900                   0.620         491.530            
       0.625         555.000                   0.625         491.530            
       0.630         555.000                   0.630         489.540            
       0.635         548.340                   0.635         493.520            
       0.640         548.340                   0.640         491.530            
       0.645         555.000                   0.645         485.560            
       0.650         550.560                   0.650         491.530            
       0.655         546.120                   0.655         489.540            
       0.660         543.900                   0.660         489.540            
       0.665         548.340                   0.665         497.500            
       0.670         543.900                   0.670         489.540            
       0.675         550.560                   0.675         491.040            
       0.680         546.120                   0.680         489.060            
       0.685         546.120                   0.685         487.080            
       0.690         555.000                   0.690         483.120            
       0.695         541.680                   0.695         489.060            
       0.700         541.680                   0.700         489.060            
       0.705         546.120                   0.705         491.040            
       0.710         543.900                   0.710         489.060            
       0.715         541.680                   0.715         495.000            
       0.720         539.460                   0.720         491.040            
       0.725         539.460                   0.725         483.120            
       0.730         541.680                   0.730         487.080            
       0.735         537.240                   0.735         489.060            
       0.740         541.680                   0.740         489.060            
       0.745         543.900                   0.745         487.080            
       0.750         550.000                   0.750         497.500            
       0.755         541.200                   0.755         489.540            
       0.760         543.400                   0.760         491.530            
       0.765         545.600                   0.765         489.540            
       0.770         534.600                   0.770         489.540            
       0.775         541.200                   0.775         493.520            
       0.780         543.400                   0.780         489.540            
       0.785         541.200                   0.785         489.540            
       0.790         536.800                   0.790         491.530            
       0.795         543.400                   0.795         489.540            
       0.800         550.000                   0.800         493.520            
       0.805         536.800                   0.805         489.540            
       0.810         541.200                   0.810         485.560            
       0.815         539.000                   0.815         491.530            
       0.820         539.000                   0.820         489.540            
       0.825         543.120                   0.825         491.530            
       0.830         538.740                   0.830         497.500            
       0.835         540.930                   0.835         485.560            
       0.840         538.740                   0.840         491.530            
       0.845         543.120                   0.845         489.540            
       0.850         540.930                   0.850         491.530            
       0.855         547.500                   0.855         489.540            
       0.860         543.120                   0.860         489.540            
       0.865         547.500                   0.865         493.520            
       0.870         543.120                   0.870         485.560            
       0.875         543.120                   0.875         489.540            
       0.880         547.500                   0.880         491.530            
       0.885         543.120                   0.885         491.530            
       0.890         543.120                   0.890         489.540            
       0.895         543.120                   0.895         489.540            
       0.900         555.000                   0.900         489.060            
       0.905         541.680                   0.905         483.120            
       0.910         548.340                   0.910         487.080            
       0.915         546.120                   0.915         487.080            
       0.920         543.900                   0.920         481.140            
       0.925         541.680                   0.925         489.060            
       0.930         546.120                   0.930         483.120            
       0.935         546.120                   0.935         483.120            
       0.940         543.900                   0.940         483.120            
       0.945         543.900                   0.945         481.140            
       0.950         548.340                   0.950         481.140            
       0.955         555.000                   0.955         495.000            
       0.960         543.900                   0.960         487.080            
       0.965         555.000                   0.965         487.080            
       0.970         548.340                   0.970         487.080            
       0.975         553.040                   0.975         497.500            
       0.980         548.580                   0.980         489.540            
       0.985         557.500                   0.985         481.580            
       0.990         548.580                   0.990         489.540            
       0.995         546.350                   0.995         489.540            
       1.000         550.810                   1.000         483.570            
       1.005         550.810                   1.005         481.580            
       1.010         546.350                   1.010         475.610            
       1.015         557.500                   1.015         485.560            
       1.020         553.040                   1.020         483.570            
       1.025         546.350                   1.025         483.570            
       1.030         550.810                   1.030         483.570            
       1.035         546.350                   1.035         481.580            
       1.040         550.810                   1.040         485.560            
       1.045         548.580                   1.045         491.530            
       1.050         560.000                   1.050         489.060            
       1.055         548.800                   1.055         487.080            
       1.060         553.280                   1.060         487.080            
       1.065         548.800                   1.065         483.120            
       1.070         548.800                   1.070         479.160            
       1.075         546.560                   1.075         489.060            
       1.080         548.800                   1.080         491.040            
       1.085         548.800                   1.085         489.060            
       1.090         546.560                   1.090         495.000            
       1.095         548.800                   1.095         487.080            
       1.100         553.280                   1.100         491.040            
       1.105         548.800                   1.105         495.000            
       1.110         551.040                   1.110         491.040            
       1.115         551.040                   1.115         495.000            
       1.120         548.800                   1.120         489.060            
       1.125         555.000                   1.125         499.380            
       1.130         543.900                   1.130         493.290            
       1.135         546.120                   1.135         491.260            
       1.140         550.560                   1.140         491.260            
       1.145         546.120                   1.145         497.350            
       1.150         546.120                   1.150         493.290            
       1.155         546.120                   1.155         497.350            
       1.160         548.340                   1.160         491.260            
       1.165         546.120                   1.165         493.290            
       1.170         548.340                   1.170         507.500            
       1.175         541.680                   1.175         499.380            
       1.180         543.900                   1.180         499.380            
       1.185         541.680                   1.185         499.380            
       1.190         539.460                   1.190         507.500            
       1.195         539.460                   1.195         499.380            
       1.200         545.000                   1.200         510.880            
       1.205         538.460                   1.205         498.520            
       1.210         540.640                   1.210         500.580            
       1.215         538.460                   1.215         504.700            
       1.220         538.460                   1.220         506.760            
       1.225         538.460                   1.225         500.580            
       1.230         540.640                   1.230         508.820            
       1.235         540.640                   1.235         506.760            
       1.240         545.000                   1.240         508.820            
       1.245         538.460                   1.245         504.700            
       1.250         536.280                   1.250         508.820            
       1.255         536.280                   1.255         504.700            
       1.260         536.280                   1.260         510.880            
       1.265         536.280                   1.265         515.000            
       1.270         538.460                   1.270         506.760            
       1.275         542.500                   1.275         518.320            
       1.280         531.650                   1.280         516.230            
       1.285         533.820                   1.285         514.140            
       1.290         535.990                   1.290         514.140            
       1.295         531.650                   1.295         516.230            
       1.300         531.650                   1.300         514.140            
       1.305         533.820                   1.305         516.230            
       1.310         533.820                   1.310         518.320            
       1.315         531.650                   1.315         514.140            
       1.320         531.650                   1.320         516.230            
       1.325         531.650                   1.325         518.320            
       1.330         531.650                   1.330         518.320            
       1.335         531.650                   1.335         516.230            
       1.340         529.480                   1.340         516.230            
       1.345         529.480                   1.345         522.500            
       1.350         536.280                   1.350         519.060            
       1.355         529.740                   1.355         510.620            
       1.360         531.920                   1.360         519.060            
       1.365         536.280                   1.365         519.060            
       1.370         545.000                   1.370         519.060            
       1.375         525.380                   1.375         516.950            
       1.380         531.920                   1.380         521.170            
       1.385         531.920                   1.385         514.840            
       1.390         531.920                   1.390         521.170            
       1.395         529.740                   1.395         523.280            
       1.400         523.200                   1.400         519.060            
       1.405         525.380                   1.405         523.280            
       1.410         531.920                   1.410         527.500            
       1.415         529.740                   1.415         514.840            
       1.420         525.380                   1.420         519.060            
       1.425         530.720                   1.425         522.500            
       1.430         530.720                   1.430         518.320            
       1.435         528.580                   1.435         518.320            
       1.440         530.720                   1.440         516.230            
       1.445         528.580                   1.445         518.320            
       1.450         524.300                   1.450         516.230            
       1.455         526.440                   1.455         518.320            
       1.460         526.440                   1.460         514.140            
       1.465         528.580                   1.465         522.500            
       1.470         530.720                   1.470         518.320            
       1.475         530.720                   1.475         516.230            
       1.480         526.440                   1.480         522.500            
       1.485         528.580                   1.485         518.320            
       1.490         535.000                   1.490         516.230            
       1.495         524.300                   1.495         522.500            
       1.500         537.500                   1.500         525.000            
       1.505         526.750                   1.505         516.600            
       1.510         528.900                   1.510         520.800            
       1.515         526.750                   1.515         518.700            
       1.520         528.900                   1.520         516.600            
       1.525         537.500                   1.525         512.400            
       1.530         528.900                   1.530         516.600            
       1.535         531.050                   1.535         514.500            
       1.540         526.750                   1.540         512.400            
       1.545         531.050                   1.545         514.500            
       1.550         531.050                   1.550         516.600            
       1.555         537.500                   1.555         518.700            
       1.560         537.500                   1.560         514.500            
       1.565         537.500                   1.565         512.400            
       1.570         537.500                   1.570         508.200            
       1.575         538.160                   1.575         517.500            
       1.580         533.820                   1.580         511.290            
       1.585         535.990                   1.585         509.220            
       1.590         529.480                   1.590         513.360            
       1.595         531.650                   1.595         511.290            
       1.600         535.990                   1.600         509.220            
       1.605         535.990                   1.605         509.220            
       1.610         535.990                   1.610         511.290            
       1.615         535.990                   1.615         507.150            
       1.620         535.990                   1.620         513.360            
       1.625         538.160                   1.625         511.290            
       1.630         533.820                   1.630         507.150            
       1.635         535.990                   1.635         509.220            
       1.640         542.500                   1.640         511.290            
       1.645         535.990                   1.645         509.220            
       1.650         545.870                   1.650         517.500            
       1.655         537.030                   1.655         507.150            
       1.660         539.240                   1.660         511.290            
       1.665         537.030                   1.665         509.220            
       1.670         539.240                   1.670         500.940            
       1.675         537.030                   1.675         509.220            
       1.680         543.660                   1.680         503.010            
       1.685         539.240                   1.685         503.010            
       1.690         541.450                   1.690         500.940            
       1.695         537.030                   1.695         507.150            
       1.700         539.240                   1.700         503.010            
       1.705         543.660                   1.705         507.150            
       1.710         552.500                   1.710         498.870            
       1.715         539.240                   1.715         509.220            
       1.720         541.450                   1.720         503.010            
       1.725         550.000                   1.725         512.500            
       1.730         539.000                   1.730         502.250            
       1.735         543.400                   1.735         502.250            
       1.740         536.800                   1.740         506.350            
       1.745         541.200                   1.745         504.300            
       1.750         543.400                   1.750         502.250            
       1.755         543.400                   1.755         502.250            
       1.760         539.000                   1.760         502.250            
       1.765         541.200                   1.765         502.250            
       1.770         536.800                   1.770         506.350            
       1.775         536.800                   1.775         508.400            
       1.780         536.800                   1.780         504.300            
       1.785         536.800                   1.785         504.300            
       1.790         536.800                   1.790         504.300            
       1.795         536.800                   1.795         506.350            
       1.800         543.660                   1.800         512.500            
       1.805         537.030                   1.805         508.400            
       1.810         543.660                   1.810         502.250            
       1.815         541.450                   1.815         498.150            
       1.820         539.240                   1.820         504.300            
       1.825         539.240                   1.825         504.300            
       1.830         539.240                   1.830         512.500            
       1.835         548.080                   1.835         502.250            
       1.840         543.660                   1.840         504.300            
       1.845         545.870                   1.845         498.150            
       1.850         548.080                   1.850         502.250            
       1.855         548.080                   1.855         498.150            
       1.860         552.500                   1.860         496.100            
       1.865         545.870                   1.865         496.100            
       1.870         548.080                   1.870         498.150            
       1.875         555.000                   1.875         505.000            
       1.880         543.900                   1.880         505.000            
       1.885         546.120                   1.885         494.900            
       1.890         546.120                   1.890         494.900            
       1.895         548.340                   1.895         498.940            
       1.900         546.120                   1.900         494.900            
       1.905         546.120                   1.905         494.900            
       1.910         548.340                   1.910         496.920            
       1.915         548.340                   1.915         494.900            
       1.920         543.900                   1.920         496.920            
       1.925         550.560                   1.925         496.920            
       1.930         546.120                   1.930         496.920            
       1.935         546.120                   1.935         496.920            
       1.940         548.340                   1.940         498.940            
       1.945         550.560                   1.945         496.920            
       1.950         550.560                   1.950         498.480            
       1.955         548.340                   1.955         502.500            
       1.960         546.120                   1.960         494.460            
       1.965         543.900                   1.965         496.470            
       1.970         548.340                   1.970         492.450            
       1.975         546.120                   1.975         496.470            
       1.980         550.560                   1.980         492.450            
       1.985         546.120                   1.985         496.470            
       1.990         546.120                   1.990         498.480            
       1.995         550.560                   1.995         494.460            
       2.000         546.120                   2.000         498.480            
       2.005         548.340                   2.005         502.500            
       2.010         550.560                   2.010         494.460            
       2.015         555.000                   2.015         496.470            
       2.020         550.560                   2.020         502.500            
       2.025         560.000                   2.025         505.000            
       2.030         553.280                   2.030         500.960            
       2.035         546.560                   2.035         496.920            
       2.040         553.280                   2.040         505.000            
       2.045         551.040                   2.045         496.920            
       2.050         553.280                   2.050         496.920            
       2.055         551.040                   2.055         496.920            
       2.060         553.280                   2.060         494.900            
       2.065         560.000                   2.065         496.920            
       2.070         553.280                   2.070         496.920            
       2.075         560.000                   2.075         498.940            
       2.080         555.520                   2.080         498.940            
       2.085         553.280                   2.085         496.920            
       2.090         555.520                   2.090         498.940            
       2.095         560.000                   2.095         505.000            
       2.100         555.520                   2.100         497.500            
       2.105         553.280                   2.105         493.520            
       2.110         555.520                   2.110         493.520            
       2.115         555.520                   2.115         497.500            
       2.120         548.800                   2.120         493.520            
       2.125         560.000                   2.125         497.500            
       2.130         546.560                   2.130         497.500            
       2.135         548.800                   2.135         491.530            
       2.140         548.800                   2.140         489.540            
       2.145         551.040                   2.145         491.530            
       2.150         548.800                   2.150         497.500            
       2.155         551.040                   2.155         485.560            
       2.160         553.280                   2.160         491.530            
       2.165         546.560                   2.165         491.530            
       2.170         551.040                   2.170         493.520            
       2.175         555.520                   2.175         500.000            
       2.180         546.560                   2.180         494.000            
       2.185         548.800                   2.185         490.000            
       2.190         546.560                   2.190         496.000            
       2.195         548.800                   2.195         496.000            
       2.200         548.800                   2.200         492.000            
       2.205         546.560                   2.205         490.000            
       2.210         551.040                   2.210         494.000            
       2.215         553.280                   2.215         496.000            
       2.220         548.800                   2.220         492.000            
       2.225         548.800                   2.225         492.000            
       2.230         548.800                   2.230         492.000            
       2.235         553.280                   2.235         500.000            
       2.240         555.520                   2.240         494.000            
       2.245         560.000                   2.245         494.000            
       2.250         558.000                   2.250         502.500            
       2.255         553.500                   2.255         496.470            
       2.260         555.750                   2.260         494.460            
       2.265         555.750                   2.265         498.480            
       2.270         555.750                   2.270         494.460            
       2.275         553.500                   2.275         496.470            
       2.280         553.500                   2.280         486.420            
       2.285         551.250                   2.285         492.450            
       2.290         555.750                   2.290         494.460            
       2.295         549.000                   2.295         488.430            
       2.300         553.500                   2.300         486.420            
       2.305         555.750                   2.305         488.430            
       2.310         562.500                   2.310         488.430            
       2.315         553.500                   2.315         488.430            
       2.320         555.750                   2.320         482.400            
       2.325         557.500                   2.325         488.560            
       2.330         550.810                   2.330         484.620            
       2.335         546.350                   2.335         486.590            
       2.340         548.580                   2.340         492.500            
       2.345         544.120                   2.345         484.620            
       2.350         548.580                   2.350         486.590            
       2.355         550.810                   2.355         480.680            
       2.360         548.580                   2.360         486.590            
       2.365         546.350                   2.365         484.620            
       2.370         546.350                   2.370         488.560            
       2.375         548.580                   2.375         480.680            
       2.380         544.120                   2.380         486.590            
       2.385         550.810                   2.385         484.620            
       2.390         548.580                   2.390         484.620            
       2.395         548.580                   2.395         480.680            
       2.400         553.280                   2.400         484.410            
       2.405         551.040                   2.405         488.430            
       2.410         546.560                   2.410         486.420            
       2.415         546.560                   2.415         484.410            
       2.420         544.320                   2.420         482.400            
       2.425         544.320                   2.425         488.430            
       2.430         544.320                   2.430         492.450            
       2.435         546.560                   2.435         484.410            
       2.440         544.320                   2.440         486.420            
       2.445         544.320                   2.445         488.430            
       2.450         546.560                   2.450         486.420            
       2.455         560.000                   2.455         502.500            
       2.460         544.320                   2.460         486.420            
       2.465         546.560                   2.465         488.430            
       2.470         546.560                   2.470         494.460            
       2.475         552.500                   2.475         502.500            
       2.480         541.450                   2.480         486.420            
       2.485         543.660                   2.485         492.450            
       2.490         541.450                   2.490         492.450            
       2.495         537.030                   2.495         492.450            
       2.500         541.450                   2.500         492.450            
       2.505         539.240                   2.505         492.450            
       2.510         543.660                   2.510         488.430            
       2.515         537.030                   2.515         492.450            
       2.520         543.660                   2.520         488.430            
       2.525         543.660                   2.525         486.420            
       2.530         543.660                   2.530         492.450            
       2.535         545.870                   2.535         488.430            
       2.540         545.870                   2.540         492.450            
       2.545         541.450                   2.545         494.460            
       2.550         550.000                   2.550         494.460            
       2.555         541.200                   2.555         492.450            
       2.560         541.200                   2.560         492.450            
       2.565         539.000                   2.565         492.450            
       2.570         541.200                   2.570         494.460            
       2.575         539.000                   2.575         492.450            
       2.580         539.000                   2.580         488.430            
       2.585         539.000                   2.585         488.430            
       2.590         539.000                   2.590         488.430            
       2.595         541.200                   2.595         492.450            
       2.600         536.800                   2.600         488.430            
       2.605         534.600                   2.605         502.500            
       2.610         534.600                   2.610         496.470            
       2.615         539.000                   2.615         494.460            
       2.620         539.000                   2.620         496.470            
       2.625         545.870                   2.625         499.380            
       2.630         539.240                   2.630         493.290            
       2.635         543.660                   2.635         497.350            
       2.640         539.240                   2.640         497.350            
       2.645         537.030                   2.645         493.290            
       2.650         530.400                   2.650         489.230            
       2.655         541.450                   2.655         497.350            
       2.660         539.240                   2.660         501.410            
       2.665         552.500                   2.665         493.290            
       2.670         543.660                   2.670         497.350            
       2.675         543.660                   2.675         497.350            
       2.680         543.660                   2.680         501.410            
       2.685         545.870                   2.685         503.440            
       2.690         545.870                   2.690         501.410            
       2.695         545.870                   2.695         507.500            
       2.700         549.340                   2.700         510.000            
       2.705         549.340                   2.705         499.800            
       2.710         551.610                   2.710         510.000            
       2.715         551.610                   2.715         505.920            
       2.720         553.880                   2.720         510.000            
       2.725         547.070                   2.725         503.880            
       2.730         553.880                   2.730         501.840            
       2.735         558.420                   2.735         510.000            
       2.740         556.150                   2.740         505.920            
       2.745         560.690                   2.745         501.840            
       2.750         558.420                   2.750         503.880            
       2.755         562.960                   2.755         505.920            
       2.760         567.500                   2.760         499.800            
       2.765         567.500                   2.765         499.800            
       2.770         562.960                   2.770         501.840            
       2.775         577.500                   2.775         506.760            
       2.780         561.330                   2.780         498.520            
       2.785         563.640                   2.785         504.700            
       2.790         568.260                   2.790         515.000            
       2.795         556.710                   2.795         504.700            
       2.800         559.020                   2.800         504.700            
       2.805         561.330                   2.805         500.580            
       2.810         559.020                   2.810         498.520            
       2.815         559.020                   2.815         500.580            
       2.820         563.640                   2.820         498.520            
       2.825         559.020                   2.825         504.700            
       2.830         556.710                   2.830         498.520            
       2.835         554.400                   2.835         504.700            
       2.840         554.400                   2.840         506.760            
       2.845         554.400                   2.845         504.700            
       2.850         560.000                   2.850         512.500            
       2.855         551.040                   2.855         504.300            
       2.860         548.800                   2.860         504.300            
       2.865         546.560                   2.865         502.250            
       2.870         546.560                   2.870         504.300            
       2.875         544.320                   2.875         504.300            
       2.880         544.320                   2.880         506.350            
       2.885         539.840                   2.885         506.350            
       2.890         539.840                   2.890         502.250            
       2.895         533.120                   2.895         504.300            
       2.900         528.640                   2.900         498.150            
       2.905         526.400                   2.905         504.300            
       2.910         530.880                   2.910         504.300            
       2.915         521.920                   2.915         498.150            
       2.920         524.160                   2.920         504.300            
       2.925         530.000                   2.925         510.000            
       2.930         519.400                   2.930         499.800            
       2.935         519.400                   2.935         501.840            
       2.940         521.520                   2.940         501.840            
       2.945         517.280                   2.945         510.000            
       2.950         508.800                   2.950         501.840            
       2.955         517.280                   2.955         501.840            
       2.960         513.040                   2.960         501.840            
       2.965         510.920                   2.965         503.880            
       2.970         508.800                   2.970         499.800            
       2.975         504.560                   2.975         501.840            
       2.980         510.920                   2.980         499.800            
       2.985         498.200                   2.985         495.720            
       2.990         504.560                   2.990         501.840            
       2.995         498.200                   2.995         499.800            
       3.000         512.500                   3.000         502.500            
       3.005         504.300                   3.005         496.470            
       3.010         506.350                   3.010         498.480            
       3.015         504.300                   3.015         492.450            
       3.020         498.150                   3.020         498.480            
       3.025         504.300                   3.025         492.450            
       3.030         502.250                   3.030         494.460            
       3.035         498.150                   3.035         488.430            
       3.040         502.250                   3.040         494.460            
       3.045         506.350                   3.045         488.430            
       3.050         504.300                   3.050         492.450            
       3.055         506.350                   3.055         494.460            
       3.060         508.400                   3.060         494.460            
       3.065         508.400                   3.065         486.420            
       3.070         512.500                   3.070         488.430            
       3.075         513.760                   3.075         493.520            
       3.080         509.600                   3.080         491.530            
       3.085         509.600                   3.085         497.500            
       3.090         515.840                   3.090         493.520            
       3.095         511.680                   3.095         491.530            
       3.100         515.840                   3.100         491.530            
       3.105         511.680                   3.105         491.530            
       3.110         511.680                   3.110         485.560            
       3.115         511.680                   3.115         489.540            
       3.120         515.840                   3.120         485.560            
       3.125         515.840                   3.125         483.570            
       3.130         511.680                   3.130         485.560            
       3.135         513.760                   3.135         485.560            
       3.140         520.000                   3.140         483.570            
       3.145         511.680                   3.145         491.530            
       3.150         525.760                   3.150         496.000            
       3.155         510.920                   3.155         486.000            
       3.160         519.400                   3.160         490.000            
       3.165         523.640                   3.165         492.000            
       3.170         519.400                   3.170         490.000            
       3.175         523.640                   3.175         500.000            
       3.180         513.040                   3.180         486.000            
       3.185         519.400                   3.185         492.000            
       3.190         521.520                   3.190         492.000            
       3.195         521.520                   3.195         484.000            
       3.200         519.400                   3.200         494.000            
       3.205         523.640                   3.205         492.000            
       3.210         521.520                   3.210         492.000            
       3.215         530.000                   3.215         496.000            
       3.220         525.760                   3.220         496.000            
       3.225         537.500                   3.225         499.800            
       3.230         528.900                   3.230         501.840            
       3.235         531.050                   3.235         493.680            
       3.240         528.900                   3.240         499.800            
       3.245         526.750                   3.245         499.800            
       3.250         524.600                   3.250         501.840            
       3.255         524.600                   3.255         501.840            
       3.260         526.750                   3.260         499.800            
       3.265         524.600                   3.265         501.840            
       3.270         526.750                   3.270         499.800            
       3.275         528.900                   3.275         510.000            
       3.280         528.900                   3.280         499.800            
       3.285         526.750                   3.285         501.840            
       3.290         528.900                   3.290         501.840            
       3.295         528.900                   3.295         503.880            
       3.300         540.000                   3.300         515.000            
       3.305         531.360                   3.305         500.580            
       3.310         529.200                   3.310         500.580            
       3.315         531.360                   3.315         504.700            
       3.320         529.200                   3.320         500.580            
       3.325         531.360                   3.325         498.520            
       3.330         529.200                   3.330         498.520            
       3.335         533.520                   3.335         498.520            
       3.340         529.200                   3.340         504.700            
       3.345         531.360                   3.345         500.580            
       3.350         527.040                   3.350         500.580            
       3.355         533.520                   3.355         498.520            
       3.360         531.360                   3.360         508.820            
       3.365         533.520                   3.365         496.460            
       3.370         535.680                   3.370         498.520            
       3.375         538.160                   3.375         505.000            
       3.380         533.820                   3.380         494.900            
       3.385         535.990                   3.385         498.940            
       3.390         531.650                   3.390         505.000            
       3.395         542.500                   3.395         500.960            
       3.400         538.160                   3.400         498.940            
       3.405         538.160                   3.405         498.940            
       3.410         538.160                   3.410         496.920            
       3.415         535.990                   3.415         496.920            
       3.420         535.990                   3.420         505.000            
       3.425         535.990                   3.425         496.920            
       3.430         538.160                   3.430         498.940            
       3.435         535.990                   3.435         498.940            
       3.440         533.820                   3.440         496.920            
       3.445         535.990                   3.445         505.000            
       3.450         545.000                   3.450         505.000            
       3.455         531.920                   3.455         496.920            
       3.460         538.460                   3.460         498.940            
       3.465         536.280                   3.465         500.960            
       3.470         536.280                   3.470         498.940            
       3.475         534.100                   3.475         505.000            
       3.480         536.280                   3.480         498.940            
       3.485         536.280                   3.485         498.940            
       3.490         531.920                   3.490         500.960            
       3.495         536.280                   3.495         500.960            
       3.500         531.920                   3.500         500.960            
       3.505         534.100                   3.505         498.940            
       3.510         534.100                   3.510         500.960            
       3.515         529.740                   3.515         496.920            
       3.520         525.380                   3.520         498.940            
       3.525         540.000                   3.525         503.880            
       3.530         531.360                   3.530         499.800            
       3.535         535.680                   3.535         495.720            
       3.540         531.360                   3.540         503.880            
       3.545         529.200                   3.545         505.920            
       3.550         531.360                   3.550         503.880            
       3.555         531.360                   3.555         503.880            
       3.560         533.520                   3.560         503.880            
       3.565         527.040                   3.565         503.880            
       3.570         529.200                   3.570         505.920            
       3.575         529.200                   3.575         503.880            
       3.580         524.880                   3.580         505.920            
       3.585         533.520                   3.585         510.000            
       3.590         535.680                   3.590         505.920            
       3.595         529.200                   3.595         510.000            
       3.600         537.500                   3.600         506.350            
       3.605         526.750                   3.605         512.500            
       3.610         528.900                   3.610         504.300            
       3.615         531.050                   3.615         508.400            
       3.620         537.500                   3.620         506.350            
       3.625         526.750                   3.625         506.350            
       3.630         524.600                   3.630         506.350            
       3.635         531.050                   3.635         506.350            
       3.640         528.900                   3.640         508.400            
       3.645         528.900                   3.645         508.400            
       3.650         526.750                   3.650         506.350            
       3.655         537.500                   3.655         508.400            
       3.660         528.900                   3.660         508.400            
       3.665         528.900                   3.665         512.500            
       3.670         531.050                   3.670         508.400            
       3.675         538.160                   3.675         520.000            
       3.680         529.480                   3.680         509.600            
       3.685         533.820                   3.685         513.760            
       3.690         531.650                   3.690         509.600            
       3.695         533.820                   3.695         509.600            
       3.700         535.990                   3.700         511.680            
       3.705         535.990                   3.705         509.600            
       3.710         533.820                   3.710         503.360            
       3.715         538.160                   3.715         515.840            
       3.720         535.990                   3.720         505.440            
       3.725         538.160                   3.725         511.680            
       3.730         533.820                   3.730         505.440            
       3.735         538.160                   3.735         503.360            
       3.740         533.820                   3.740         509.600            
       3.745         542.500                   3.745         503.360            
       3.750         542.500                   3.750         515.000            
       3.755         533.820                   3.755         504.700            
       3.760         533.820                   3.760         500.580            
       3.765         538.160                   3.765         504.700            
       3.770         538.160                   3.770         504.700            
       3.775         529.480                   3.775         496.460            
       3.780         535.990                   3.780         500.580            
       3.785         538.160                   3.785         498.520            
       3.790         533.820                   3.790         504.700            
       3.795         538.160                   3.795         504.700            
       3.800         538.160                   3.800         500.580            
       3.805         535.990                   3.805         506.760            
       3.810         538.160                   3.810         498.520            
       3.815         535.990                   3.815         504.700            
       3.820         531.650                   3.820         504.700            
       3.825         547.500                   3.825         505.920            
       3.830         534.360                   3.830         501.840            
       3.835         534.360                   3.835         499.800            
       3.840         536.550                   3.840         510.000            
       3.845         536.550                   3.845         499.800            
       3.850         536.550                   3.850         501.840            
       3.855         538.740                   3.855         499.800            
       3.860         534.360                   3.860         499.800            
       3.865         532.170                   3.865         495.720            
       3.870         538.740                   3.870         499.800            
       3.875         538.740                   3.875         499.800            
       3.880         532.170                   3.880         503.880            
       3.885         532.170                   3.885         503.880            
       3.890         534.360                   3.890         499.800            
       3.895         529.980                   3.895         501.840            
       3.900         540.000                   3.900         500.580            
       3.905         535.680                   3.905         500.580            
       3.910         533.520                   3.910         504.700            
       3.915         533.520                   3.915         504.700            
       3.920         533.520                   3.920         498.520            
       3.925         529.200                   3.925         508.820            
       3.930         529.200                   3.930         515.000            
       3.935         533.520                   3.935         510.880            
       3.940         529.200                   3.940         506.760            
       3.945         531.360                   3.945         506.760            
       3.950         527.040                   3.950         506.760            
       3.955         527.040                   3.955         506.760            
       3.960         533.520                   3.960         506.760            
       3.965         524.880                   3.965         506.760            
       3.970         520.560                   3.970         510.880            
       3.975         528.240                   3.975         517.500            
       3.980         523.980                   3.980         507.150            
       3.985         523.980                   3.985         509.220            
       3.990         528.240                   3.990         503.010            
       3.995         526.110                   3.995         507.150            
       4.000         528.240                   4.000         503.010            
       4.005         532.500                   4.005         507.150            
       4.010         528.240                   4.010         509.220            
       4.015         526.110                   4.015         509.220            
       4.020         526.110                   4.020         509.220            
       4.025         528.240                   4.025         511.290            
       4.030         526.110                   4.030         509.220            
       4.035         528.240                   4.035         509.220            
       4.040         528.240                   4.040         509.220            
       4.045         528.240                   4.045         511.290            
       4.050         537.500                   4.050         513.360            
       4.055         531.050                   4.055         517.500            
       4.060         526.750                   4.060         513.360            
       4.065         524.600                   4.065         511.290            
       4.070         524.600                   4.070         511.290            
       4.075         526.750                   4.075         509.220            
       4.080         528.900                   4.080         503.010            
       4.085         524.600                   4.085         503.010            
       4.090         524.600                   4.090         503.010            
       4.095         522.450                   4.095         507.150            
       4.100         524.600                   4.100         500.940            
       4.105         524.600                   4.105         500.940            
       4.110         528.900                   4.110         498.870            
       4.115         518.150                   4.115         496.800            
       4.120         524.600                   4.120         494.730            
       4.125         531.050                   4.125         500.000            
       4.130         531.050                   4.130         494.000            
       4.135         528.900                   4.135         490.000            
       4.140         522.450                   4.140         490.000            
       4.145         526.750                   4.145         490.000            
       4.150         524.600                   4.150         486.000            
       4.155         528.900                   4.155         484.000            
       4.160         524.600                   4.160         486.000            
       4.165         528.900                   4.165         476.000            
       4.170         533.200                   4.170         476.000            
       4.175         533.200                   4.175         476.000            
       4.180         537.500                   4.180         474.000            
       4.185         533.200                   4.185         472.000            
       4.190         537.500                   4.190         472.000            
       4.195         537.500                   4.195         466.000            
       4.200         548.080                   4.200         470.000            
       4.205         543.660                   4.205         466.240            
       4.210         545.870                   4.210         458.720            
       4.215         543.660                   4.215         462.480            
       4.220         543.660                   4.220         462.480            
       4.225         548.080                   4.225         451.200            
       4.230         548.080                   4.230         456.840            
       4.235         545.870                   4.235         456.840            
       4.240         545.870                   4.240         454.960            
       4.245         545.870                   4.245         451.200            
       4.250         548.080                   4.250         449.320            
       4.255         548.080                   4.255         451.200            
       4.260         548.080                   4.260         439.920            
       4.265         548.080                   4.265         436.160            
       4.270         552.500                   4.270         432.400            
       4.275         552.500                   4.275         440.000            
       4.280         543.660                   4.280         425.920            
       4.285         545.870                   4.285         429.440            
       4.290         539.240                   4.290         417.120            
       4.295         541.450                   4.295         411.840            
       4.300         534.820                   4.300         404.800            
       4.305         534.820                   4.305         396.000            
       4.310         528.190                   4.310         396.000            
       4.315         530.400                   4.315         387.200            
       4.320         521.560                   4.320         387.200            
       4.325         519.350                   4.325         383.680            
       4.330         514.930                   4.330         383.680            
       4.335         510.510                   4.335         383.680            
       4.340         510.510                   4.340         378.400            
       4.345         508.300                   4.345         374.880            
       4.350         515.000                   4.350         387.040            
       4.355         500.580                   4.355         383.760            
       4.360         496.460                   4.360         382.120            
       4.365         496.460                   4.365         387.040            
       4.370         496.460                   4.370         391.960            
       4.375         494.400                   4.375         391.960            
       4.380         492.340                   4.380         398.520            
       4.385         492.340                   4.385         396.880            
       4.390         486.160                   4.390         398.520            
       4.395         486.160                   4.395         401.800            
       4.400         486.160                   4.400         398.520            
       4.405         492.340                   4.405         406.720            
       4.410         488.220                   4.410         401.800            
       4.415         492.340                   4.415         406.720            
       4.420         496.460                   4.420         410.000            
       4.425         505.780                   4.425         417.500            
       4.430         503.690                   4.430         414.160            
       4.435         501.600                   4.435         414.160            
       4.440         503.690                   4.440         414.160            
       4.445         505.780                   4.445         412.490            
       4.450         512.050                   4.450         412.490            
       4.455         516.230                   4.455         409.150            
       4.460         512.050                   4.460         404.140            
       4.465         509.960                   4.465         404.140            
       4.470         522.500                   4.470         402.470            
       4.475         505.780                   4.475         402.470            
       4.480         503.690                   4.480         402.470            
       4.485         499.510                   4.485         399.130            
       4.490         503.690                   4.490         394.120            
       4.495         497.420                   4.495         399.130            
       4.500         505.780                   4.500         410.000            
       4.505         499.510                   4.505         401.800            
       4.510         501.600                   4.510         403.440            
       4.515         497.420                   4.515         403.440            
       4.520         497.420                   4.520         403.440            
       4.525         497.420                   4.525         410.000            
       4.530         493.240                   4.530         406.720            
       4.535         493.240                   4.535         403.440            
       4.540         497.420                   4.540         403.440            
       4.545         499.510                   4.545         406.720            
       4.550         509.960                   4.550         401.800            
       4.555         509.960                   4.555         396.880            
       4.560         518.320                   4.560         401.800            
       4.565         514.140                   4.565         401.800            
       4.570         522.500                   4.570         403.440            
       4.575         529.740                   4.575         411.180            
       4.580         529.740                   4.580         411.180            
       4.585         531.920                   4.585         416.520            
       4.590         529.740                   4.590         421.860            
       4.595         538.460                   4.595         430.760            
       4.600         538.460                   4.600         439.660            
       4.605         538.460                   4.605         439.660            
       4.610         545.000                   4.610         441.440            
       4.615         538.460                   4.615         441.440            
       4.620         536.280                   4.620         439.660            
       4.625         538.460                   4.625         441.440            
       4.630         538.460                   4.630         445.000            
       4.635         538.460                   4.635         439.660            
       4.640         536.280                   4.640         441.440            
       4.645         534.100                   4.645         436.100            
       4.650         536.800                   4.650         441.320            
       4.655         536.800                   4.655         435.710            
       4.660         536.800                   4.660         439.450            
       4.665         536.800                   4.665         448.800            
       4.670         541.200                   4.670         450.670            
       4.675         543.400                   4.675         461.890            
       4.680         541.200                   4.680         456.280            
       4.685         543.400                   4.685         456.280            
       4.690         545.600                   4.690         467.500            
       4.695         545.600                   4.695         463.760            
       4.700         550.000                   4.700         461.890            
       4.705         541.200                   4.705         467.500            
       4.710         550.000                   4.710         463.760            
       4.715         541.200                   4.715         463.760            
       4.720         541.200                   4.720         461.890            
       4.725         550.000                   4.725         471.240            
       4.730         536.800                   4.730         461.040            
       4.735         532.400                   4.735         469.200            
       4.740         536.800                   4.740         473.280            
       4.745         528.000                   4.745         477.360            
       4.750         536.800                   4.750         477.360            
       4.755         536.800                   4.755         483.480            
       4.760         545.600                   4.760         489.600            
       4.765         545.600                   4.765         495.720            
       4.770         550.000                   4.770         493.680            
       4.775         550.000                   4.775         503.880            
       4.780         545.600                   4.780         503.880            
       4.785         550.000                   4.785         510.000            
       4.790         543.400                   4.790         510.000            
       4.795         543.400                   4.795         510.000            
       4.800         544.500                   4.800         519.750            
       4.805         533.250                   4.805         510.750            
       4.810         526.500                   4.810         524.250            
       4.815         522.000                   4.815         524.250            
       4.820         519.750                   4.820         524.250            
       4.825         519.750                   4.825         522.000            
       4.830         513.000                   4.830         528.750            
       4.835         522.000                   4.835         531.000            
       4.840         524.250                   4.840         531.000            
       4.845         528.750                   4.845         528.750            
       4.850         540.000                   4.850         542.250            
       4.855         549.000                   4.855         549.000            
       4.860         549.000                   4.860         549.000            
       4.865         553.500                   4.865         555.750            
       4.870         562.500                   4.870         562.500            
       4.875         569.250                   4.875         572.000            
       4.880         569.250                   4.880         569.250            
       4.885         579.370                   4.885         580.250            
       4.890         581.900                   4.890         588.500            
       4.895         579.370                   4.895         588.500            
       4.900         584.430                   4.900         599.500            
       4.905         592.020                   4.905         607.750            
       4.910         599.610                   4.910         616.000            
       4.915         592.020                   4.915         621.500            
       4.920         599.610                   4.920         632.500            
       4.925         602.140                   4.925         649.000            
       4.930         607.200                   4.930         654.500            
       4.935         614.790                   4.935         662.750            
       4.940         622.380                   4.940         673.750            
       4.945         632.500                   4.945         687.500            
       4.950         642.600                   4.950         694.510            
       4.955         639.540                   4.955         704.980            
       4.960         654.840                   4.960         722.430            
       4.965         654.840                   4.965         729.410            
       4.970         660.960                   4.970         746.860            
       4.975         667.080                   4.975         760.820            
       4.980         676.260                   4.980         774.780            
       4.985         682.380                   4.985         778.270            
       4.990         694.620                   4.990         792.230            
       4.995         706.860                   4.995         809.680            
       5.000         712.980                   5.000         816.660            
       5.005         728.280                   5.005         834.110            
       5.010         743.580                   5.010         844.580            
       5.015         749.700                   5.015         862.030            
       5.020         765.000                   5.020         872.500            
       5.025         776.860                   5.025         887.360            
       5.030         784.020                   5.030         891.120            
       5.035         784.020                   5.035         902.400            
       5.040         794.760                   5.040         906.160            
       5.045         809.080                   5.045         913.680            
       5.050         816.240                   5.050         917.440            
       5.055         823.400                   5.055         917.440            
       5.060         834.140                   5.060         924.960            
       5.065         841.300                   5.065         928.720            
       5.070         844.880                   5.070         940.000            
       5.075         866.360                   5.075         932.480            
       5.080         866.360                   5.080         932.480            
       5.085         877.100                   5.085         932.480            
       5.090         887.840                   5.090         928.720            
       5.095         895.000                   5.095         924.960            
       5.100         899.100                   5.100         927.500            
       5.105         899.100                   5.105         912.660            
       5.110         913.900                   5.110         901.530            
       5.115         917.600                   5.115         897.820            
       5.120         925.000                   5.120         886.690            
       5.125         917.600                   5.125         871.850            
       5.130         921.300                   5.130         857.010            
       5.135         910.200                   5.135         849.590            
       5.140         891.700                   5.140         838.460            
       5.145         880.600                   5.145         819.910            
       5.150         858.400                   5.150         808.780            
       5.155         847.300                   5.155         790.230            
       5.160         821.400                   5.160         782.810            
       5.165         799.200                   5.165         764.260            
       5.170         769.600                   5.170         742.000            
       5.175         750.000                   5.175         722.500            
       5.180         708.000                   5.180         684.930            
       5.185         672.000                   5.185         658.920            
       5.190         633.000                   5.190         612.680            
       5.195         600.000                   5.195         569.330            
       5.200         555.000                   5.200         517.310            
       5.205         519.000                   5.205         459.510            
       5.210         477.000                   5.210         393.040            
       5.215         435.000                   5.215         332.350            
       5.220         390.000                   5.220         271.660            
       5.225         357.000                   5.225         205.190            
       5.230         300.000                   5.230         156.060            
       5.235         261.000                   5.235         106.930            
       5.240         222.000                   5.240          63.580            
       5.245         177.000                   5.245           5.780            
       5.250         140.000                   5.250           0.000            
       5.255          94.640                   5.255           0.000            
       5.260          54.880                   5.260           0.000            
       5.265           0.000                   5.265           0.000            
       5.270           0.000                   5.270           0.000            
       5.275           0.000                   5.275           0.000            
       5.280           0.000                   5.280           0.000            
       5.285           2.240                   5.285           0.000            
       5.290           0.000                   5.290           0.000            
       5.295           0.000                   5.295           0.000            
       5.300           0.000                   5.300           0.000            
       5.305           0.000                   5.305           0.000            
       5.310           0.000                   5.310           0.000            
       5.315           0.000                   5.315           0.000            
       5.320           0.000                   5.320           0.000            
       5.325           0.000                   5.325           0.000            
       5.330           0.000                   5.330           0.000            
       5.335           0.000                   5.335           0.000            
       5.340           0.000                   5.340           0.000            
       5.345           0.000                   5.345           0.000            
       5.350           0.000                   5.350           0.000            
       5.355           0.000                   5.355           0.000            
       5.360           0.000                   5.360           0.000            
       5.365           0.000                   5.365           0.000            
       5.370           0.000                   5.370           0.000            
       5.375           0.000                   5.375           0.000            
       5.380           0.000                   5.380           0.000            
       5.385           0.000                   5.385           0.000            
       5.390           0.000                   5.390           0.000            
       5.395           0.000                   5.395           0.000            
       5.400           0.000                   5.400           0.000            
       5.405           0.000                   5.405           0.000            
       5.410           0.000                   5.410           0.000            
       5.415           0.000                   5.415           0.000            
       5.420           0.000                   5.420           0.000            
       5.425           0.000                   5.425           0.000            
       5.430           0.000                   5.430           0.000            
       5.435           0.000                   5.435           0.000            
       5.440           0.000                   5.440           0.000            
       5.445           0.000                   5.445           0.000            
       5.450           0.000                   5.450           0.000            
       5.455           0.000                   5.455           0.000            
       5.460           0.000                   5.460           0.000            
       5.465           0.000                   5.465           0.000            
       5.470           0.000                   5.470           0.000            
       5.475           0.000                   5.475           0.000            
       5.480           0.000                   5.480           0.000            
       5.485           0.000                   5.485           0.000            
       5.490           0.000                   5.490           0.000            
       5.495           0.000                   5.495           0.000            
       5.500           0.000                   5.500           0.000            
       5.505           0.000                   5.505           0.000            
       5.510           0.000                   5.510           0.000            
       5.515           0.000                   5.515           0.000            
       5.520           0.000                   5.520           2.500            
       5.525           0.000                   5.525           0.000            
       5.530           0.000                   5.530           0.000            
       5.535           0.000                   5.535           0.000            
       5.540           0.000                   5.540           2.500            
       5.545           0.000                   5.545           2.500            
       5.550           0.000                   5.550           4.610            
       5.555           0.000                   5.555           0.000            
       5.560           0.000                   5.560           4.610            
       5.565           0.000                   5.565           4.610            
       5.570           0.000                   5.570           4.610            
       5.575           0.000                   5.575           9.220            
       5.580           2.500                   5.580           4.610            
       5.585           0.000                   5.585           4.610            
       5.590           0.000                   5.590           9.220            
       5.595           0.000                   5.595           4.610            
       5.600           0.000                   5.600          13.830            
       5.605           0.000                   5.605          46.100            
       5.610           0.000                   5.610         341.140            
       5.615           0.000                   5.615        1092.570            
       5.620           0.000                   5.620        1152.500            
       5.625          24.640                   5.625         938.150            
       5.630         221.760                   5.630         808.750            
       5.635         573.760                   5.635         821.690            
       5.640         637.120                   5.640         944.620            
       5.645         440.000                   5.645        1132.250            
       5.650         369.600                   5.650        1332.820            
       5.655         355.520                   5.655        1520.450            
       5.660         397.760                   5.660        1611.030            
       5.665         503.360                   5.665        1617.500            
       5.670         679.360                   5.670        1578.680            
       5.675         827.200                   5.675        1552.800            
       5.680         869.440                   5.680        1501.040            
       5.685         848.320                   5.685        1462.220            
       5.690         851.840                   5.690        1423.400            
       5.695         880.000                   5.695        1391.050            
       5.700         909.450                   5.700        1385.000            
       5.705         921.060                   5.705        1351.760            
       5.710         944.280                   5.710        1329.600            
       5.715         952.020                   5.715        1324.060            
       5.720         967.500                   5.720        1329.600            
       5.725         959.760                   5.725        1324.060            
       5.730         940.410                   5.730        1329.600            
       5.735         909.450                   5.735        1307.440            
       5.740         878.490                   5.740        1290.820            
       5.745         851.400                   5.745        1252.040            
       5.750         843.660                   5.750        1202.180            
       5.755         835.920                   5.755        1174.480            
       5.760         832.050                   5.760        1141.240            
       5.765         828.180                   5.765        1124.620            
       5.770         832.050                   5.770        1124.620            
       5.775         836.250                   5.775        1130.290            
       5.780         843.750                   5.780        1125.600            
       5.785         851.250                   5.785        1130.290            
       5.790         862.500                   5.790        1134.980            
       5.795         870.000                   5.795        1134.980            
       5.800         881.250                   5.800        1144.360            
       5.805         885.000                   5.805        1149.050            
       5.810         885.000                   5.810        1149.050            
       5.815         900.000                   5.815        1163.120            
       5.820         900.000                   5.820        1158.430            
       5.825         907.500                   5.825        1163.120            
       5.830         922.500                   5.830        1172.500            
       5.835         926.250                   5.835        1158.430            
       5.840         937.500                   5.840        1158.430            
       5.845         937.500                   5.845        1149.050            
       5.850         942.500                   5.850        1150.000            
       5.855         931.190                   5.855        1136.200            
       5.860         923.650                   5.860        1131.600            
       5.865         919.880                   5.865        1131.600            
       5.870         919.880                   5.870        1122.400            
       5.875         931.190                   5.875        1113.200            
       5.880         923.650                   5.880        1127.000            
       5.885         927.420                   5.885        1122.400            
       5.890         927.420                   5.890        1122.400            
       5.895         934.960                   5.895        1117.800            
       5.900         934.960                   5.900        1122.400            
       5.905         923.650                   5.905        1117.800            
       5.910         916.110                   5.910        1108.600            
       5.915         904.800                   5.915        1104.000            
       5.920         893.490                   5.920        1099.400            
       5.925         885.000                   5.925        1105.000            
       5.930         863.760                   5.930        1087.320            
       5.935         842.520                   5.935        1082.900            
       5.940         831.900                   5.940        1078.480            
       5.945         810.660                   5.945        1069.640            
       5.950         796.500                   5.950        1060.800            
       5.955         782.340                   5.955        1056.380            
       5.960         782.340                   5.960        1047.540            
       5.965         771.720                   5.965        1043.120            
       5.970         775.260                   5.970        1034.280            
       5.975         768.180                   5.975        1016.600            
       5.980         761.100                   5.980        1012.180            
       5.985         761.100                   5.985         998.920            
       5.990         750.480                   5.990         994.500            
       5.995         754.020                   5.995         985.660            
       6.000         747.840                   6.000         981.600            
       6.005         738.720                   6.005         965.240            
       6.010         735.680                   6.010         965.240            
       6.015         726.560                   6.015         961.150            
       6.020         717.440                   6.020         961.150            
       6.025         717.440                   6.025         969.330            
       6.030         723.520                   6.030         969.330            
       6.035         714.400                   6.035         973.420            
       6.040         717.440                   6.040         977.510            
       6.045         717.440                   6.045         981.600            
       6.050         723.520                   6.050         981.600            
       6.055         726.560                   6.055         989.780            
       6.060         741.760                   6.060         997.960            
       6.065         747.840                   6.065        1010.230            
       6.070         760.000                   6.070        1022.500            
       6.075         776.000                   6.075        1041.480            
       6.080         776.000                   6.080        1052.000            
       6.085         796.000                   6.085        1062.520            
       6.090         808.000                   6.090        1088.820            
       6.095         836.000                   6.095        1109.860            
       6.100         860.000                   6.100        1136.160            
       6.105         872.000                   6.105        1162.460            
       6.110         884.000                   6.110        1178.240            
       6.115         912.000                   6.115        1204.540            
       6.120         928.000                   6.120        1230.840            
       6.125         940.000                   6.125        1246.620            
       6.130         952.000                   6.130        1262.400            
       6.135         964.000                   6.135        1283.440            
       6.140         984.000                   6.140        1299.220            
       6.145        1000.000                   6.145        1315.000            
       6.150        1021.240                   6.150        1334.640            
       6.155        1029.680                   6.155        1329.280            
       6.160        1038.120                   6.160        1340.000            
       6.165        1050.780                   6.165        1340.000            
       6.170        1055.000                   6.170        1334.640            
       6.175        1050.780                   6.175        1313.200            
       6.180        1055.000                   6.180        1307.840            
       6.185        1042.340                   6.185        1264.960            
       6.190        1017.020                   6.190        1216.720            
       6.195         987.480                   6.195        1152.400            
       6.200         936.840                   6.200        1061.280            
       6.205         877.760                   6.205         970.160            
       6.210         806.020                   6.210         852.240            
       6.215         721.620                   6.215         739.680            
       6.220         641.440                   6.220         611.040            
       6.225         542.500                   6.225         532.500            
       6.230         412.300                   6.230         404.700            
       6.235         316.820                   6.235         281.160            
       6.240         219.170                   6.240         159.750            
       6.245         121.520                   6.245          68.160            
       6.250          49.910                   6.250           0.000            
       6.255           0.000                   6.255           0.000            
       6.260           0.000                   6.260           0.000            
       6.265           0.000                   6.265           0.000            
       6.270           0.000                   6.270           0.000            
       6.275           0.000                   6.275           0.000            
       6.280           0.000                   6.280           0.000            
       6.285           0.000                   6.285           0.000            
       6.290           0.000                   6.290           0.000            
       6.295           0.000                   6.295           0.000            
       6.300           0.000                   6.300           5.000            
       6.305           0.000                   6.305           0.000            
       6.310           0.000                   6.310           0.000            
       6.315           0.000                   6.315           0.000            
       6.320           0.000                   6.320           0.000            
       6.325           0.000                   6.325           0.000            
       6.330           0.000                   6.330           0.000            
       6.335           0.000                   6.335           0.000            
       6.340           0.000                   6.340           0.000            
       6.345           0.000                   6.345           0.000            
       6.350           0.000                   6.350           0.000            
       6.355           0.000                   6.355           0.000            
       6.360           0.000                   6.360           0.000            
       6.365           0.000                   6.365           0.000            
       6.370           0.000                   6.370           0.000            
       6.375           0.000                   6.375           0.000            
       6.380           0.000                   6.380           0.000            
       6.385           0.000                   6.385           0.000            
       6.390           0.000                   6.390           0.000            
       6.395           0.000                   6.395           0.000            
       6.400           0.000                   6.400           0.000            
       6.405           0.000                   6.405           0.000            
       6.410           0.000                   6.410           0.000            
       6.415           0.000                   6.415           0.000            
       6.420           0.000                   6.420           0.000            
       6.425           0.000                   6.425           0.000            
       6.430           0.000                   6.430           0.000            
       6.435           0.000                   6.435           0.000            
       6.440           0.000                   6.440           0.000            
       6.445           0.000                   6.445           0.000            
       6.450           0.000                   6.450           0.000            
       6.455           0.000                   6.455           0.000            
       6.460           0.000                   6.460           0.000            
       6.465           0.000                   6.465           0.000            
       6.470           0.000                   6.470           0.000            
       6.475           0.000                   6.475           0.000            
       6.480           0.000                   6.480           0.000            
       6.485           0.000                   6.485           0.000            
       6.490           0.000                   6.490           0.000            
       6.495           0.000                   6.495           0.000            
       6.500           0.000                   6.500           0.000            
       6.505           0.000                   6.505           0.000            
       6.510           0.000                   6.510           0.000            
       6.515           0.000                   6.515           0.000            
       6.520           0.000                   6.520           0.000            
       6.525           0.000                   6.525           0.000            
       6.530           0.000                   6.530           0.000            
       6.535           0.000                   6.535           0.000            
       6.540           0.000                   6.540           0.000            
       6.545           0.000                   6.545           0.000            
       6.550           0.000                   6.550           0.000            
       6.555           0.000                   6.555           0.000            
       6.560           0.000                   6.560           0.000            
       6.565           0.000                   6.565           0.000            
       6.570           0.000                   6.570           0.000            
       6.575           0.000                   6.575           0.000            
       6.580           0.000                   6.580           0.000            
       6.585           0.000                   6.585           0.000            
       6.590           0.000                   6.590           0.000            
       6.595           0.000                   6.595           0.000            
       6.600           0.000                   6.600           0.000            
       6.605           0.000                   6.605           0.000            
       6.610           0.000                   6.610           0.000            
       6.615           0.000                   6.615           0.000            
       6.620           0.000                   6.620           0.000            
       6.625           0.000                   6.625           0.000            
       6.630           0.000                   6.630           0.000            
       6.635           0.000                   6.635           0.000            
       6.640           0.000                   6.640           0.000            
       6.645           0.000                   6.645           0.000            
       6.650           0.000                   6.650           0.000            
       6.655           0.000                   6.655           0.000            
       6.660           0.000                   6.660           0.000            
       6.665           0.000                   6.665           0.000            
       6.670           0.000                   6.670           0.000            
       6.675           0.000                   6.675           0.000            
       6.680           0.000                   6.680           0.000            
       6.685           0.000                   6.685           0.000            
       6.690           0.000                   6.690           0.000            
       6.695           0.000                   6.695           0.000            
       6.700           0.000                   6.700           0.000            
       6.705           0.000                   6.705           0.000            
       6.710           0.000                   6.710           0.000            
       6.715           0.000                   6.715           0.000            
       6.720           0.000                   6.720           0.000            
       6.725           0.000                   6.725         228.750            
       6.730           0.000                   6.730         777.750            
       6.735           0.000                   6.735        1793.400            
       6.740          29.800                   6.740        2287.500            
       6.745         372.500                   6.745        1363.350            
       6.750         888.160                   6.750        1084.590            
       6.755        1179.360                   6.755        1074.060            
       6.760         844.480                   6.760        1137.240            
       6.765         771.680                   6.765        1221.480            
       6.770         829.920                   6.770        1305.720            
       6.775         895.440                   6.775        1389.960            
       6.780         990.080                   6.780        1495.260            
       6.785        1062.880                   6.785        1705.860            
       6.790        1128.400                   6.790        2116.530            
       6.795        1223.040                   6.795        2485.080            
       6.800        1339.520                   6.800        2632.500            
       6.805        1499.680                   6.805        2600.910            
       6.810        1710.800                   6.810        2442.960            
       6.815        1820.000                   6.815        2179.710            
       6.820        1776.320                   6.820        1895.400            
       6.825        1652.500                   6.825        1717.500            
       6.830        1474.030                   6.830        1532.010            
       6.835        1302.170                   6.835        1415.220            
       6.840        1156.750                   6.840        1380.870            
       6.845        1050.990                   6.845        1387.740            
       6.850         958.450                   6.850        1401.480            
       6.855         898.960                   6.855        1415.220            
       6.860         846.080                   6.860        1428.960            
       6.865         793.200                   6.865        1435.830            
       6.870         746.930                   6.870        1449.570            
       6.875         707.270                   6.875        1442.700            
       6.880         661.000                   6.880        1442.700            
       6.885         621.340                   6.885        1428.960            
       6.890         588.290                   6.890        1408.350            
       6.895         548.630                   6.895        1380.870            
       6.900         532.500                   6.900        1342.500            
       6.905         496.290                   6.905        1283.430            
       6.910         474.990                   6.910        1256.580            
       6.915         453.690                   6.915        1218.990            
       6.920         428.130                   6.920        1186.770            
       6.925         419.610                   6.925        1149.180            
       6.930         400.440                   6.930        1100.850            
       6.935         389.790                   6.935        1074.000            
       6.940         383.400                   6.940        1036.410            
       6.945         377.010                   6.945         998.820            
       6.950         374.880                   6.950         966.600            
       6.955         368.490                   6.955         939.750            
       6.960         370.620                   6.960         912.900            
       6.965         368.490                   6.965         896.790            
       6.970         366.360                   6.970         875.310            
       6.975         376.200                   6.975         865.000            
       6.980         366.300                   6.980         844.240            
       6.985         371.250                   6.985         837.320            
       6.990         366.300                   6.990         823.480            
       6.995         364.650                   6.995         820.020            
       7.000         366.300                   7.000         809.640            
       7.005         376.200                   7.005         802.720            
       7.010         386.100                   7.010         799.260            
       7.015         391.050                   7.015         802.720            
       7.020         394.350                   7.020         792.340            
       7.025         405.900                   7.025         781.960            
       7.030         412.500                   7.030         775.040            
       7.035         412.500                   7.035         768.120            
       7.040         405.900                   7.040         761.200            
       7.045         405.900                   7.045         750.820            
       7.050         415.000                   7.050         742.500            
       7.055         398.400                   7.055         727.650            
       7.060         388.440                   7.060         715.770            
       7.065         383.460                   7.065         697.950            
       7.070         368.520                   7.070         689.040            
       7.075         356.900                   7.075         686.070            
       7.080         348.600                   7.080         677.160            
       7.085         333.660                   7.085         665.280            
       7.090         332.000                   7.090         668.250            
       7.095         323.700                   7.095         665.280            
       7.100         318.720                   7.100         665.280            
       7.105         322.040                   7.105         662.310            
       7.110         317.060                   7.110         662.310            
       7.115         313.740                   7.115         656.370            
       7.120         318.720                   7.120         659.340            
       7.125         324.360                   7.125         670.000            
       7.130         329.130                   7.130         656.600            
       7.135         333.900                   7.135         656.600            
       7.140         346.620                   7.140         648.560            
       7.145         351.390                   7.145         648.560            
       7.150         360.930                   7.150         648.560            
       7.155         368.880                   7.155         643.200            
       7.160         372.060                   7.160         637.840            
       7.165         373.650                   7.165         632.480            
       7.170         381.600                   7.170         632.480            
       7.175         381.600                   7.175         621.760            
       7.180         381.600                   7.180         619.080            
       7.185         389.550                   7.185         616.400            
       7.190         389.550                   7.190         608.360            
       7.195         397.500                   7.195         605.680            
       7.200         401.940                   7.200         610.000            
       7.205         401.940                   7.205         605.120            
       7.210         403.680                   7.210         592.920            
       7.215         408.900                   7.215         592.920            
       7.220         412.380                   7.220         585.600            
       7.225         412.380                   7.225         580.720            
       7.230         426.300                   7.230         570.960            
       7.235         412.380                   7.235         573.400            
       7.240         419.340                   7.240         566.080            
       7.245         419.340                   7.245         556.320            
       7.250         426.300                   7.250         556.320            
       7.255         426.300                   7.255         551.440            
       7.260         429.780                   7.260         541.680            
       7.265         435.000                   7.265         546.560            
       7.270         431.520                   7.270         546.560            
       7.275         447.200                   7.275         545.000            
       7.280         447.200                   7.280         538.460            
       7.285         451.360                   7.285         531.920            
       7.290         461.760                   7.290         534.100            
       7.295         461.760                   7.295         529.740            
       7.300         472.160                   7.300         529.740            
       7.305         478.400                   7.305         531.920            
       7.310         484.640                   7.310         529.740            
       7.315         499.200                   7.315         529.740            
       7.320         501.280                   7.320         529.740            
       7.325         505.440                   7.325         531.920            
       7.330         511.680                   7.330         531.920            
       7.335         515.840                   7.335         529.740            
       7.340         520.000                   7.340         529.740            
       7.345         520.000                   7.345         525.380            
       7.350         527.500                   7.350         530.000            
       7.355         514.840                   7.355         517.280            
       7.360         510.620                   7.360         519.400            
       7.365         516.950                   7.365         517.280            
       7.370         510.620                   7.370         510.920            
       7.375         514.840                   7.375         510.920            
       7.380         506.400                   7.380         508.800            
       7.385         514.840                   7.385         508.800            
       7.390         504.290                   7.390         508.800            
       7.395         506.400                   7.395         504.560            
       7.400         508.510                   7.400         508.800            
       7.405         510.620                   7.405         517.280            
       7.410         508.510                   7.410         510.920            
       7.415         510.620                   7.415         508.800            
       7.420         519.060                   7.420         510.920            
       7.425         522.500                   7.425         518.150            
       7.430         518.320                   7.430         509.550            
       7.435         516.230                   7.435         511.700            
       7.440         522.500                   7.440         518.150            
       7.445         518.320                   7.445         518.150            
       7.450         522.500                   7.450         516.000            
       7.455         522.500                   7.455         524.600            
       7.460         516.230                   7.460         522.450            
       7.465         514.140                   7.465         524.600            
       7.470         518.320                   7.470         528.900            
       7.475         514.140                   7.475         528.900            
       7.480         516.230                   7.480         526.750            
       7.485         514.140                   7.485         533.200            
       7.490         514.140                   7.490         537.500            
       7.495         512.050                   7.495         533.200            
       7.500         517.500                   7.500         540.000            
       7.505         507.150                   7.505         535.500            
       7.510         507.150                   7.510         535.500            
       7.515         503.010                   7.515         549.000            
       7.520         500.940                   7.520         546.750            
       7.525         500.940                   7.525         553.500            
       7.530         500.940                   7.530         546.750            
       7.535         507.150                   7.535         551.250            
       7.540         503.010                   7.540         553.500            
       7.545         503.010                   7.545         553.500            
       7.550         498.870                   7.550         555.750            
       7.555         507.150                   7.555         558.000            
       7.560         503.010                   7.560         558.000            
       7.565         507.150                   7.565         555.750            
       7.570         500.940                   7.570         562.500            
       7.575         506.350                   7.575         558.600            
       7.580         496.100                   7.580         556.320            
       7.585         512.500                   7.585         556.320            
       7.590         494.050                   7.590         558.600            
       7.595         496.100                   7.595         558.600            
       7.600         498.150                   7.600         556.320            
       7.605         496.100                   7.605         554.040            
       7.610         492.000                   7.610         558.600            
       7.615         492.000                   7.615         563.160            
       7.620         492.000                   7.620         558.600            
       7.625         483.800                   7.625         560.880            
       7.630         489.950                   7.630         558.600            
       7.635         492.000                   7.635         570.000            
       7.640         489.950                   7.640         560.880            
       7.645         485.850                   7.645         570.000            
       7.650         495.000                   7.650         571.200            
       7.655         481.140                   7.655         566.400            
       7.660         481.140                   7.660         571.200            
       7.665         479.160                   7.665         573.600            
       7.670         477.180                   7.670         576.000            
       7.675         477.180                   7.675         583.200            
       7.680         479.160                   7.680         585.600            
       7.685         481.140                   7.685         583.200            
       7.690         471.240                   7.690         585.600            
       7.695         473.220                   7.695         588.000            
       7.700         471.240                   7.700         592.800            
       7.705         471.240                   7.705         590.400            
       7.710         473.220                   7.710         595.200            
       7.715         469.260                   7.715         595.200            
       7.720         473.220                   7.720         600.000            
       7.725         477.500                   7.725         609.280            
       7.730         466.040                   7.730         606.720            
       7.735         464.130                   7.735         614.400            
       7.740         466.040                   7.740         622.080            
       7.745         456.490                   7.745         611.840            
       7.750         456.490                   7.750         614.400            
       7.755         450.760                   7.755         614.400            
       7.760         448.850                   7.760         616.960            
       7.765         450.760                   7.765         622.080            
       7.770         450.760                   7.770         627.200            
       7.775         446.940                   7.775         624.640            
       7.780         439.300                   7.780         624.640            
       7.785         433.570                   7.785         629.760            
       7.790         437.390                   7.790         629.760            
       7.795         429.750                   7.795         640.000            
       7.800         435.000                   7.800         644.980            
       7.805         424.560                   7.805         639.560            
       7.810         419.340                   7.810         642.270            
       7.815         414.120                   7.815         647.690            
       7.820         407.160                   7.820         644.980            
       7.825         403.680                   7.825         650.400            
       7.830         396.720                   7.830         647.690            
       7.835         394.980                   7.835         653.110            
       7.840         391.500                   7.840         655.820            
       7.845         389.760                   7.845         655.820            
       7.850         381.060                   7.850         661.240            
       7.855         381.060                   7.855         663.950            
       7.860         368.880                   7.860         672.080            
       7.865         368.880                   7.865         672.080            
       7.870         354.960                   7.870         677.500            
       7.875         360.000                   7.875         685.440            
       7.880         354.240                   7.880         679.680            
       7.885         347.040                   7.885         685.440            
       7.890         344.160                   7.890         688.320            
       7.895         334.080                   7.895         691.200            
       7.900         336.960                   7.900         699.840            
       7.905         329.760                   7.905         702.720            
       7.910         324.000                   7.910         702.720            
       7.915         316.800                   7.915         708.480            
       7.920         316.800                   7.920         705.600            
       7.925         306.720                   7.925         720.000            
       7.930         306.720                   7.930         705.600            
       7.935         296.640                   7.935         711.360            
       7.940         292.320                   7.940         711.360            
       7.945         289.440                   7.945         714.240            
       7.950         292.500                   7.950         720.590            
       7.955         284.310                   7.955         729.560            
       7.960         274.950                   7.960         714.610            
       7.965         277.290                   7.965         720.590            
       7.970         274.950                   7.970         720.590            
       7.975         271.440                   7.975         726.570            
       7.980         266.760                   7.980         729.560            
       7.985         271.440                   7.985         729.560            
       7.990         271.440                   7.990         735.540            
       7.995         264.420                   7.995         735.540            
       8.000         266.760                   8.000         735.540            
       8.005         264.420                   8.005         738.530            
       8.010         269.100                   8.010         744.510            
       8.015         266.760                   8.015         747.500            
       8.020         271.440                   8.020         741.520            
       8.025         279.850                   8.025         752.500            
       8.030         279.850                   8.030         743.470            
       8.035         271.150                   8.035         740.460            
       8.040         276.950                   8.040         740.460            
       8.045         276.950                   8.045         740.460            
       8.050         284.200                   8.050         737.450            
       8.055         290.000                   8.055         725.410            
       8.060         301.600                   8.060         722.400            
       8.065         298.700                   8.065         719.390            
       8.070         308.850                   8.070         707.350            
       8.075         319.000                   8.075         704.340            
       8.080         329.150                   8.080         695.310            
       8.085         342.200                   8.085         689.290            
       8.090         352.350                   8.090         674.240            
       8.095         362.500                   8.095         659.190            
       8.100         385.700                   8.100         652.500            
       8.105         393.680                   8.105         636.840            
       8.110         414.960                   8.110         615.960            
       8.115         430.920                   8.115         592.470            
       8.120         454.860                   8.120         576.810            
       8.125         473.480                   8.125         561.150            
       8.130         489.440                   8.130         519.390            
       8.135         508.060                   8.135         501.120            
       8.140         539.980                   8.140         475.020            
       8.145         553.280                   8.145         443.700            
       8.150         574.560                   8.150         417.600            
       8.155         606.480                   8.155         391.500            
       8.160         622.440                   8.160         352.350            
       8.165         646.380                   8.165         323.640            
       8.170         665.000                   8.170         292.320            
       8.175         695.200                   8.175         267.500            
       8.180         707.050                   8.180         226.840            
       8.185         726.800                   8.185         191.530            
       8.190         750.500                   8.190         161.570            
       8.195         774.200                   8.195         131.610            
       8.200         797.900                   8.200         112.350            
       8.205         809.750                   8.205          86.670            
       8.210         837.400                   8.210          69.550            
       8.215         861.100                   8.215          24.610            
       8.220         876.900                   8.220          11.770            
       8.225         896.650                   8.225           0.000            
       8.230         924.300                   8.230           0.000            
       8.235         944.050                   8.235           0.000            
       8.240         963.800                   8.240           0.000            
       8.245         987.500                   8.245           0.000            
       8.250        1012.500                   8.250           0.000            
       8.255        1030.500                   8.255           0.000            
       8.260        1048.500                   8.260           0.000            
       8.265        1071.000                   8.265           0.000            
       8.270        1080.000                   8.270           0.000            
       8.275        1102.500                   8.275           0.000            
       8.280        1107.000                   8.280           0.000            
       8.285        1116.000                   8.285           0.000            
       8.290        1116.000                   8.290           0.000            
       8.295        1116.000                   8.295           0.000            
       8.300        1125.000                   8.300           0.000            
       8.305        1125.000                   8.305           0.000            
       8.310        1120.500                   8.310           0.000            
       8.315        1116.000                   8.315           0.000            
       8.320        1107.000                   8.320           0.000            
       8.325        1102.500                   8.325           0.000            
       8.330        1084.860                   8.330           0.000            
       8.335        1076.040                   8.335           0.000            
       8.340        1067.220                   8.340           0.000            
       8.345        1053.990                   8.345           0.000            
       8.350        1040.760                   8.350           0.000            
       8.355        1031.940                   8.355           0.000            
       8.360        1018.710                   8.360           0.000            
       8.365        1009.890                   8.365           0.000            
       8.370        1005.480                   8.370           0.000            
       8.375         992.250                   8.375           0.000            
       8.380         979.020                   8.380           0.000            
       8.385         970.200                   8.385           0.000            
       8.390         961.380                   8.390           0.000            
       8.395         952.560                   8.395           0.000            
       8.400         960.000                   8.400           0.000            
       8.405         944.640                   8.405           0.000            
       8.410         940.800                   8.410           0.000            
       8.415         936.960                   8.415           0.000            
       8.420         925.440                   8.420           0.000            
       8.425         925.440                   8.425           0.000            
       8.430         929.280                   8.430           0.000            
       8.435         921.600                   8.435           0.000            
       8.440         921.600                   8.440           0.000            
       8.445         921.600                   8.445           0.000            
       8.450         925.440                   8.450           0.000            
       8.455         929.280                   8.455           0.000            
       8.460         929.280                   8.460           0.000            
       8.465         933.120                   8.465           0.000            
       8.470         936.960                   8.470           0.000            
       8.475         947.500                   8.475           0.000            
       8.480         939.920                   8.480           0.000            
       8.485         947.500                   8.485           0.000            
       8.490         943.710                   8.490           0.000            
       8.495         939.920                   8.495           0.000            
       8.500         936.130                   8.500           0.000            
       8.505         939.920                   8.505           0.000            
       8.510         947.500                   8.510           0.000            
       8.515         932.340                   8.515           0.000            
       8.520         939.920                   8.520           0.000            
       8.525         939.920                   8.525           0.000            
       8.530         939.920                   8.530          14.760            
       8.535         936.130                   8.535          32.390            
       8.540         943.710                   8.540          52.480            
       8.545         939.920                   8.545         102.500            
       8.550         950.000                   8.550         162.840            
       8.555         934.800                   8.555         237.180            
       8.560         931.000                   8.560         304.440            
       8.565         927.200                   8.565         364.620            
       8.570         915.800                   8.570         410.640            
       8.575         900.600                   8.575         442.500            
       8.580         885.400                   8.580         495.600            
       8.585         858.800                   8.585         541.620            
       8.590         839.800                   8.590         601.800            
       8.595         817.000                   8.595         654.900            
       8.600         786.600                   8.600         700.920            
       8.605         760.000                   8.605         746.940            
       8.610         725.800                   8.610         789.420            
       8.615         687.800                   8.615         835.440            
       8.620         649.800                   8.620         885.000            
       8.625         625.000                   8.625         930.580            
       8.630         575.000                   8.630         971.040            
       8.635         527.500                   8.635        1011.500            
       8.640         500.000                   8.640        1069.300            
       8.645         457.500                   8.645        1109.760            
       8.650         417.500                   8.650        1156.000            
       8.655         380.000                   8.655        1202.240            
       8.660         335.000                   8.660        1236.920            
       8.665         297.500                   8.665        1277.380            
       8.670         250.000                   8.670        1312.060            
       8.675         210.000                   8.675        1346.740            
       8.680         172.500                   8.680        1369.860            
       8.685         137.500                   8.685        1404.540            
       8.690          97.500                   8.690        1427.660            
       8.695          65.000                   8.695        1445.000            
       8.700          12.500                   8.700        1462.240            
       8.705           0.000                   8.705        1468.160            
       8.710           0.000                   8.710        1480.000            
       8.715           0.000                   8.715        1474.080            
       8.720           0.000                   8.720        1468.160            
       8.725           0.000                   8.725        1462.240            
       8.730           0.000                   8.730        1444.480            
       8.735           0.000                   8.735        1426.720            
       8.740           0.000                   8.740        1403.040            
       8.745           0.000                   8.745        1379.360            
       8.750           0.000                   8.750        1349.760            
       8.755           0.000                   8.755        1320.160            
       8.760           0.000                   8.760        1290.560            
       8.765           0.000                   8.765        1266.880            
       8.770           0.000                   8.770        1231.360            
       8.775           0.000                   8.775        1205.000            
       8.780           0.000                   8.780        1166.440            
       8.785           0.000                   8.785        1142.340            
       8.790           0.000                   8.790        1113.420            
       8.795           0.000                   8.795        1074.860            
       8.800           0.000                   8.800        1050.760            
       8.805           0.000                   8.805        1031.480            
       8.810           0.000                   8.810         997.740            
       8.815           0.000                   8.815         978.460            
       8.820           0.000                   8.820         949.540            
       8.825           0.000                   8.825         930.260            
       8.830           0.000                   8.830         910.980            
       8.835           0.000                   8.835         886.880            
       8.840           0.000                   8.840         877.240            
       8.845           0.000                   8.845         857.960            
       8.850           0.000                   8.850         847.500            
       8.855           0.000                   8.855         833.940            
       8.860           0.000                   8.860         816.990            
       8.865           0.000                   8.865         810.210            
       8.870           0.000                   8.870         800.040            
       8.875           0.000                   8.875         789.870            
       8.880           0.000                   8.880         796.650            
       8.885           0.000                   8.885         789.870            
       8.890           0.000                   8.890         783.090            
       8.895           0.000                   8.895         786.480            
       8.900           0.000                   8.900         786.480            
       8.905           0.000                   8.905         793.260            
       8.910           0.000                   8.910         796.650            
       8.915           0.000                   8.915         803.430            
       8.920           0.000                   8.920         803.430            
       8.925           0.000                   8.925         817.650            
       8.930           0.000                   8.930         825.550            
       8.935           0.000                   8.935         829.500            
       8.940           0.000                   8.940         845.300            
       8.945           0.000                   8.945         849.250            
       8.950           0.000                   8.950         861.100            
       8.955           0.000                   8.955         872.950            
       8.960           0.000                   8.960         888.750            
       8.965           0.000                   8.965         904.550            
       8.970           0.000                   8.970         920.350            
       8.975           0.000                   8.975         932.200            
       8.980           0.000                   8.980         948.000            
       8.985           0.000                   8.985         963.800            
       8.990           0.000                   8.990         975.650            
       8.995           0.000                   8.995         987.500            
       9.000           0.000                   9.000        1000.400            
       9.005           0.000                   9.005        1004.500            
       9.010           0.000                   9.010        1008.600            
       9.015           0.000                   9.015        1012.700            
       9.020           0.000                   9.020        1016.800            
       9.025           0.000                   9.025        1016.800            
       9.030           0.000                   9.030        1020.900            
       9.035           0.000                   9.035        1025.000            
       9.040           0.000                   9.040        1020.900            
       9.045           0.000                   9.045        1016.800            
       9.050           0.000                   9.050        1008.600            
       9.055           0.000                   9.055        1004.500            
       9.060           0.000                   9.060        1004.500            
       9.065           0.000                   9.065         996.300            
       9.070           0.000                   9.070         984.000            
       9.075           0.000                   9.075         985.000            
       9.080           0.000                   9.080         969.240            
       9.085           0.000                   9.085         957.420            
       9.090           0.000                   9.090         949.540            
       9.095           0.000                   9.095         933.780            
       9.100           0.000                   9.100         921.960            
       9.105           0.000                   9.105         914.080            
       9.110           0.000                   9.110         902.260            
       9.115           0.000                   9.115         886.500            
       9.120           0.000                   9.120         886.500            
       9.125           0.000                   9.125         874.680            
       9.130           0.000                   9.130         866.800            
       9.135           0.000                   9.135         858.920            
       9.140           0.000                   9.140         854.980            
       9.145           0.000                   9.145         851.040            
       9.150           0.000                   9.150         854.070            
       9.155           0.000                   9.155         847.210            
       9.160           0.000                   9.160         847.210            
       9.165           0.000                   9.165         843.780            
       9.170           0.000                   9.170         847.210            
       9.175           0.000                   9.175         850.640            
       9.180           0.000                   9.180         847.210            
       9.185           0.000                   9.185         857.500            
       9.190           0.000                   9.190         847.210            
       9.195           0.000                   9.195         857.500            
       9.200           0.000                   9.200         857.500            
       9.205           0.000                   9.205         857.500            
       9.210           0.000                   9.210         857.500            
       9.215           0.000                   9.215         847.210            
       9.220           0.000                   9.220         843.780            
       9.225           0.000                   9.225         850.000            
       9.230           0.000                   9.230         833.000            
       9.235           0.000                   9.235         819.400            
       9.240           0.000                   9.240         822.800            
       9.245           0.000                   9.245         809.200            
       9.250          11.990                   9.250         799.000            
       9.255          17.440                   9.255         782.000            
       9.260          37.060                   9.260         771.800            
       9.265          62.130                   9.265         754.800            
       9.270          83.930                   9.270         734.400            
       9.275         119.900                   9.275         724.200            
       9.280         162.410                   9.280         700.400            
       9.285         207.100                   9.285         680.000            
       9.290         236.530                   9.290         652.800            
       9.295         272.500                   9.295         625.600            
       9.300         304.720                   9.300         612.500            
       9.305         331.090                   9.305         578.200            
       9.310         360.390                   9.310         546.350            
       9.315         389.690                   9.315         512.050            
       9.320         424.850                   9.320         485.100            
       9.325         457.080                   9.325         455.700            
       9.330         492.240                   9.330         428.750            
       9.335         512.750                   9.335         401.800            
       9.340         547.910                   9.340         372.400            
       9.345         577.210                   9.345         335.650            
       9.350         609.440                   9.350         316.050            
       9.355         638.740                   9.355         291.550            
       9.360         670.970                   9.360         271.950            
       9.365         703.200                   9.365         245.000            
       9.370         732.500                   9.370         222.950            
       9.375         768.000                   9.375         212.500            
       9.380         796.800                   9.380         189.550            
       9.385         825.600                   9.385         164.900            
       9.390         864.000                   9.390         139.400            
       9.395         892.800                   9.395         127.500            
       9.400         921.600                   9.400         112.200            
       9.405         960.000                   9.405          96.900            
       9.410         984.000                   9.410          85.000            
       9.415        1017.600                   9.415          72.250            
       9.420        1051.200                   9.420          34.850            
       9.425        1084.800                   9.425          14.450            
       9.430        1113.600                   9.430           0.000            
       9.435        1152.000                   9.435           0.000            
       9.440        1176.000                   9.440           0.000            
       9.445        1200.000                   9.445           0.000            
       9.450        1226.940                   9.450           2.500            
       9.455        1237.080                   9.455           0.000            
       9.460        1252.290                   9.460           0.000            
       9.465        1257.360                   9.465           0.000            
       9.470        1262.430                   9.470           0.000            
       9.475        1262.430                   9.475           0.000            
       9.480        1267.500                   9.480           0.000            
       9.485        1242.150                   9.485           0.000            
       9.490        1237.080                   9.490           0.000            
       9.495        1216.800                   9.495           0.000            
       9.500        1196.520                   9.500           0.000            
       9.505        1176.240                   9.505           0.000            
       9.510        1155.960                   9.510           0.000            
       9.515        1130.610                   9.515           0.000            
       9.520        1105.260                   9.520           0.000            
       9.525        1100.000                   9.525           0.000            
       9.530        1064.800                   9.530           0.000            
       9.535        1051.600                   9.535           0.000            
       9.540        1038.400                   9.540           0.000            
       9.545        1020.800                   9.545           0.000            
       9.550        1012.000                   9.550           0.000            
       9.555         998.800                   9.555           0.000            
       9.560         990.000                   9.560           0.000            
       9.565         976.800                   9.565           0.000            
       9.570         972.400                   9.570           0.000            
       9.575         963.600                   9.575           0.000            
       9.580         959.200                   9.580           0.000            
       9.585         959.200                   9.585           0.000            
       9.590         954.800                   9.590           0.000            
       9.595         950.400                   9.595           0.000            
       9.600         954.990                   9.600           0.000            
       9.605         951.060                   9.605           0.000            
       9.610         947.130                   9.610           0.000            
       9.615         951.060                   9.615           0.000            
       9.620         954.990                   9.620           0.000            
       9.625         954.990                   9.625           0.000            
       9.630         958.920                   9.630           0.000            
       9.635         958.920                   9.635           0.000            
       9.640         958.920                   9.640           0.000            
       9.645         966.780                   9.645           0.000            
       9.650         958.920                   9.650           0.000            
       9.655         974.640                   9.655           0.000            
       9.660         970.710                   9.660           0.000            
       9.665         974.640                   9.665           0.000            
       9.670         982.500                   9.670           0.000            
       9.675         987.070                   9.675           0.000            
       9.680         987.070                   9.680           0.000            
       9.685         991.200                   9.685           0.000            
       9.690         991.200                   9.690           0.000            
       9.695         999.460                   9.695           0.000            
       9.700        1003.590                   9.700           0.000            
       9.705        1007.720                   9.705           0.000            
       9.710        1007.720                   9.710           0.000            
       9.715        1011.850                   9.715           0.000            
       9.720        1011.850                   9.720           0.000            
       9.725        1015.980                   9.725           0.000            
       9.730        1020.110                   9.730           0.000            
       9.735        1024.240                   9.735           0.000            
       9.740        1024.240                   9.740           0.000            
       9.745        1032.500                   9.745           0.000            
       9.750        1042.340                   9.750           0.000            
       9.755        1038.120                   9.755           0.000            
       9.760        1046.560                   9.760           0.000            
       9.765        1042.340                   9.765           0.000            
       9.770        1046.560                   9.770           0.000            
       9.775        1046.560                   9.775           0.000            
       9.780        1050.780                   9.780           0.000            
       9.785        1055.000                   9.785           0.000            
       9.790        1050.780                   9.790           0.000            
       9.795        1046.560                   9.795           0.000            
       9.800        1042.340                   9.800           0.000            
       9.805        1046.560                   9.805           0.000            
       9.810        1038.120                   9.810           0.000            
       9.815        1033.900                   9.815           0.000            
       9.820        1033.900                   9.820           0.000            
       9.825        1042.500                   9.825           0.000            
       9.830        1029.990                   9.830           0.000            
       9.835        1034.160                   9.835           0.000            
       9.840        1025.820                   9.840           0.000            
       9.845        1021.650                   9.845           0.000            
       9.850        1021.650                   9.850           0.000            
       9.855        1017.480                   9.855           0.000            
       9.860        1017.480                   9.860           0.000            
       9.865        1009.140                   9.865           0.000            
       9.870        1009.140                   9.870           0.000            
       9.875        1004.970                   9.875           0.000            
       9.880         996.630                   9.880           0.000            
       9.885         992.460                   9.885           0.000            
       9.890         984.120                   9.890           0.000            
       9.895         984.120                   9.895           0.000            
       9.900         995.000                   9.900           0.000            
       9.905         971.120                   9.905           0.000            
       9.910         975.100                   9.910           0.000            
       9.915         971.120                   9.915           0.000            
       9.920         971.120                   9.920           0.000            
       9.925         967.140                   9.925           0.000            
       9.930         963.160                   9.930           0.000            
       9.935         967.140                   9.935           0.000            
       9.940         963.160                   9.940           0.000            
       9.945         967.140                   9.945           0.000            
       9.950         959.180                   9.950           0.000            
       9.955         951.220                   9.955           0.000            
       9.960         951.220                   9.960           0.000            
       9.965         951.220                   9.965           0.000            
       9.970         947.240                   9.970           0.000            
       9.975         952.500                   9.975           0.000            
       9.980         944.880                   9.980           0.000            
       9.985         937.260                   9.985           0.000            
       9.990         933.450                   9.990           0.000            
       9.995         937.260                   9.995           0.000            
      10.000         929.640                  10.000           0.000            
      10.005         929.640                  10.005           0.000            
      10.010         922.020                  10.010          11.760            
      10.015         922.020                  10.015          34.440            
      10.020         918.210                  10.020          59.640            
      10.025         914.400                  10.025          77.280            
      10.030         914.400                  10.030         102.480            
      10.035         906.780                  10.035         129.360            
      10.040         899.160                  10.040         169.680            
      10.045         895.350                  10.045         210.000            
      10.050         895.000                  10.050         252.300            
      10.055         877.100                  10.055         290.000            
      10.060         862.780                  10.060         321.900            
      10.065         855.620                  10.065         362.500            
      10.070         834.140                  10.070         394.400            
      10.075         809.080                  10.075         420.500            
      10.080         794.760                  10.080         469.800            
      10.085         758.960                  10.085         493.000            
      10.090         733.900                  10.090         524.900            
      10.095         701.680                  10.095         556.800            
      10.100         665.880                  10.100         591.600            
      10.105         626.500                  10.105         626.400            
      10.110         579.960                  10.110         664.100            
      10.115         537.000                  10.115         698.900            
      10.120         501.200                  10.120         725.000            
      10.125         465.000                  10.125         763.200            
      10.130         429.660                  10.130         796.800            
      10.135         392.460                  10.135         844.800            
      10.140         364.560                  10.140         864.000            
      10.145         336.660                  10.145         907.200            
      10.150         308.760                  10.150         936.000            
      10.155         280.860                  10.155         979.200            
      10.160         258.540                  10.160        1003.200            
      10.165         228.780                  10.165        1046.400            
      10.170         208.320                  10.170        1080.000            
      10.175         184.140                  10.175        1108.800            
      10.180         171.120                  10.180        1142.400            
      10.185         146.940                  10.185        1166.400            
      10.190         135.780                  10.190        1195.200            
      10.195         117.180                  10.195        1200.000            
      10.200         112.500                  10.200        1220.180            
      10.205          92.250                  10.205        1220.180            
      10.210          79.650                  10.210        1235.000            
      10.215          69.750                  10.215        1230.060            
      10.220          34.650                  10.220        1225.120            
      10.225          22.500                  10.225        1225.120            
      10.230          14.850                  10.230        1210.300            
      10.235          12.150                  10.235        1200.420            
      10.240           7.200                  10.240        1175.720            
      10.245           7.200                  10.245        1165.840            
      10.250           2.250                  10.250        1151.020            
      10.255           0.000                  10.255        1126.320            
      10.260           0.000                  10.260        1106.560            
      10.265           0.000                  10.265        1096.680            
      10.270           0.000                  10.270        1081.860            
      10.275           0.000                  10.275        1075.000            
      10.280           0.000                  10.280        1066.400            
      10.285           0.000                  10.285        1053.500            
      10.290           0.000                  10.290        1044.900            
      10.295           0.000                  10.295        1044.900            
      10.300           0.000                  10.300        1036.300            
      10.305           0.000                  10.305        1036.300            
      10.310           0.000                  10.310        1036.300            
      10.315           0.000                  10.315        1032.000            
      10.320           0.000                  10.320        1023.400            
      10.325           0.000                  10.325        1014.800            
      10.330           0.000                  10.330        1014.800            
      10.335           0.000                  10.335        1006.200            
      10.340           0.000                  10.340        1001.900            
      10.345           0.000                  10.345         993.300            
      10.350           0.000                  10.350         992.500            
      10.355           0.000                  10.355         968.680            
      10.360           0.000                  10.360         968.680            
      10.365           0.000                  10.365         956.770            
      10.370           0.000                  10.370         948.830            
      10.375           0.000                  10.375         948.830            
      10.380           2.500                  10.380         928.980            
      10.385           0.000                  10.385         921.040            
      10.390           0.000                  10.390         913.100            
      10.395           0.000                  10.395         901.190            
      10.400           0.000                  10.400         897.220            
      10.405           0.000                  10.405         893.250            
      10.410           0.000                  10.410         881.340            
      10.415           0.000                  10.415         877.370            
      10.420           0.000                  10.420         873.400            
************.***    ********.**               10.425         877.500            
************.***    ********.**               10.430         866.970            
************.***    ********.**               10.435         859.950            
************.***    ********.**               10.440         866.970            
************.***    ********.**               10.445         863.460            
************.***    ********.**               10.450         863.460            
************.***    ********.**               10.455         863.460            
************.***    ********.**               10.460         859.950            
************.***    ********.**               10.465         859.950            
************.***    ********.**               10.470         859.950            
************.***    ********.**               10.475         866.970            
************.***    ********.**               10.480         863.460            
************.***    ********.**               10.485         866.970            
************.***    ********.**               10.490         870.480            
************.***    ********.**               10.495         877.500            
************.***    ********.**               10.500         881.910            
************.***    ********.**               10.505         878.220            
************.***    ********.**               10.510         885.600            
************.***    ********.**               10.515         885.600            
************.***    ********.**               10.520         889.290            
************.***    ********.**               10.525         896.670            
************.***    ********.**               10.530         889.290            
************.***    ********.**               10.535         900.360            
************.***    ********.**               10.540         904.050            
************.***    ********.**               10.545         904.050            
************.***    ********.**               10.550         911.430            
************.***    ********.**               10.555         907.740            
************.***    ********.**               10.560         922.500            
************.***    ********.**               10.565         918.810            
************.***    ********.**               10.570         911.430            
************.***    ********.**               10.575         924.000            
************.***    ********.**               10.580         920.150            
************.***    ********.**               10.585         927.850            
************.***    ********.**               10.590         935.550            
************.***    ********.**               10.595         927.850            
************.***    ********.**               10.600         931.700            
************.***    ********.**               10.605         931.700            
************.***    ********.**               10.610         939.400            
************.***    ********.**               10.615         947.100            
************.***    ********.**               10.620         947.100            
************.***    ********.**               10.625         950.950            
************.***    ********.**               10.630         950.950            
************.***    ********.**               10.635         954.800            
************.***    ********.**               10.640         962.500            
************.***    ********.**               10.645         958.650            
************.***    ********.**               10.650         965.000            
************.***    ********.**               10.655         961.140            
************.***    ********.**               10.660         961.140            
************.***    ********.**               10.665         965.000            
************.***    ********.**               10.670         961.140            
************.***    ********.**               10.675         961.140            
************.***    ********.**               10.680         957.280            
************.***    ********.**               10.685         949.560            
************.***    ********.**               10.690         953.420            
************.***    ********.**               10.695         941.840            
************.***    ********.**               10.700         941.840            
************.***    ********.**               10.705         937.980            
************.***    ********.**               10.710         934.120            
************.***    ********.**               10.715         926.400            
************.***    ********.**               10.720         918.680            
************.***    ********.**               10.725         917.500            
************.***    ********.**               10.730         902.820            
************.***    ********.**               10.735         891.810            
************.***    ********.**               10.740         877.130            
************.***    ********.**               10.745         869.790            
************.***    ********.**               10.750         851.440            
************.***    ********.**               10.755         836.760            
************.***    ********.**               10.760         822.080            
************.***    ********.**               10.765         803.730            
************.***    ********.**               10.770         785.380            
************.***    ********.**               10.775         763.360            
************.***    ********.**               10.780         734.000            
************.***    ********.**               10.785         711.980            
************.***    ********.**               10.790         678.950            
************.***    ********.**               10.795         645.920            
************.***    ********.**               10.800         612.500            
************.***    ********.**               10.805         570.850            
************.***    ********.**               10.810         539.000            
************.***    ********.**               10.815         499.800            
************.***    ********.**               10.820         467.950            
************.***    ********.**               10.825         431.200            
************.***    ********.**               10.830         399.350            
************.***    ********.**               10.835         355.250            
************.***    ********.**               10.840         323.400            
************.***    ********.**               10.845         286.650            
************.***    ********.**               10.850         252.350            
************.***    ********.**               10.855         218.050            
************.***    ********.**               10.860         186.200            
************.***    ********.**               10.865         154.350            
************.***    ********.**               10.870         124.950            
************.***    ********.**               10.875         110.000            
************.***    ********.**               10.880          79.640            
************.***    ********.**               10.885          59.840            
************.***    ********.**               10.890          22.440            
************.***    ********.**               10.895          14.960            
************.***    ********.**               10.900           4.840            
************.***    ********.**               10.905           0.000            
************.***    ********.**               10.910           0.000            
************.***    ********.**               10.915           0.000            
************.***    ********.**               10.920           0.000            
************.***    ********.**               10.925           0.000            
************.***    ********.**               10.930           0.000            
************.***    ********.**               10.935           0.000            
************.***    ********.**               10.940           0.000            
************.***    ********.**               10.945           0.000            
************.***    ********.**               10.950           0.000            
************.***    ********.**               10.955           0.000            
************.***    ********.**               10.960           0.000            
************.***    ********.**               10.965           0.000            
************.***    ********.**               10.970           0.000            
************.***    ********.**               10.975           0.000            
************.***    ********.**               10.980           0.000            
************.***    ********.**               10.985           0.000            
************.***    ********.**               10.990           0.000            
************.***    ********.**               10.995           0.000            
************.***    ********.**               11.000           0.000            
************.***    ********.**               11.005           0.000            
************.***    ********.**               11.010           0.000            
************.***    ********.**               11.015           0.000            
************.***    ********.**               11.020           0.000            
************.***    ********.**               11.025           0.000            
************.***    ********.**               11.030           0.000            
************.***    ********.**               11.035           0.000            
************.***    ********.**               11.040           0.000            
************.***    ********.**               11.045           0.000            
************.***    ********.**               11.050           0.000            
************.***    ********.**               11.055           0.000            
************.***    ********.**               11.060           0.000            
************.***    ********.**               11.065           0.000            
************.***    ********.**               11.070           0.000            
************.***    ********.**               11.075           0.000            
************.***    ********.**               11.080           0.000            
************.***    ********.**               11.085           0.000            
************.***    ********.**               11.090           0.000            
************.***    ********.**               11.095           0.000            
************.***    ********.**               11.100           0.000            
************.***    ********.**               11.105           0.000            
************.***    ********.**               11.110           0.000            
************.***    ********.**               11.115           0.000            
************.***    ********.**               11.120           0.000            
************.***    ********.**               11.125           0.000            
************.***    ********.**               11.130           0.000            
************.***    ********.**               11.135           0.000            
************.***    ********.**               11.140           0.000            
************.***    ********.**               11.145           0.000            
************.***    ********.**               11.150           0.000            
************.***    ********.**               11.155           0.000            
************.***    ********.**               11.160           0.000            
************.***    ********.**               11.165           0.000            
************.***    ********.**               11.170           0.000            
************.***    ********.**               11.175           2.490            
************.***    ********.**               11.180           0.000            
************.***    ********.**               11.185           0.000            
************.***    ********.**               11.190           0.000            
************.***    ********.**               11.195           0.000            
************.***    ********.**               11.200           2.490            
************.***    ********.**               11.205           4.980            
************.***    ********.**               11.210           0.000            
************.***    ********.**               11.215           0.000            
************.***    ********.**               11.220           2.490            
************.***    ********.**               11.225           2.490            
************.***    ********.**               11.230           4.980            
************.***    ********.**               11.235           0.000            
************.***    ********.**               11.240           7.500            
************.***    ********.**               11.245           4.980            
************.***    ********.**               11.250           7.480            
************.***    ********.**               11.255          10.000            
************.***    ********.**               11.260           2.480            
************.***    ********.**               11.265           2.480            
************.***    ********.**               11.270           5.000            
************.***    ********.**               11.275           5.000            
************.***    ********.**               11.280           5.000            
************.***    ********.**               11.285           5.000            
************.***    ********.**               11.290           2.480            
************.***    ********.**               11.295           0.000            
************.***    ********.**               11.300           5.000            
************.***    ********.**               11.305           0.000            
************.***    ********.**               11.310           5.000            
************.***    ********.**               11.315           0.000            
************.***    ********.**               11.320           0.000            
************.***    ********.**               11.325           5.000            
************.***    ********.**               11.330           0.000            
************.***    ********.**               11.335           0.000            
************.***    ********.**               11.340           0.000            
************.***    ********.**               11.345           0.000            
************.***    ********.**               11.350           2.500            
************.***    ********.**               11.355           0.000            
************.***    ********.**               11.360           2.500            
************.***    ********.**               11.365           2.500            
************.***    ********.**               11.370           0.000            
************.***    ********.**               11.375           0.000            
************.***    ********.**               11.380           0.000            
************.***    ********.**               11.385           0.000            
************.***    ********.**               11.390           0.000            
************.***    ********.**               11.395           5.000            
