File: bi3   18.02.20  02:55:36
Comment: bi3
                    P1Y374-L                                P1Y373-R                                
Time[secs]          Force[N]            Time[secs]          Force[N]            
       0.000         553.040                   0.000         531.050            
       0.005         550.810                   0.005         528.900            
       0.010         553.040                   0.010         528.900            
       0.015         553.040                   0.015         526.750            
       0.020         548.580                   0.020         526.750            
       0.025         550.810                   0.025         537.500            
       0.030         548.580                   0.030         533.200            
       0.035         557.500                   0.035         533.200            
       0.040         548.580                   0.040         533.200            
       0.045         550.810                   0.045         531.050            
       0.050         550.810                   0.050         528.900            
       0.055         548.580                   0.055         531.050            
       0.060         553.040                   0.060         533.200            
       0.065         546.350                   0.065         531.050            
       0.070         548.580                   0.070         528.900            
       0.075         553.500                   0.075         533.200            
       0.080         551.250                   0.080         531.050            
       0.085         551.250                   0.085         528.900            
       0.090         562.500                   0.090         528.900            
       0.095         551.250                   0.095         528.900            
       0.100         549.000                   0.100         528.900            
       0.105         551.250                   0.105         531.050            
       0.110         555.750                   0.110         528.900            
       0.115         555.750                   0.115         537.500            
       0.120         553.500                   0.120         533.200            
       0.125         553.500                   0.125         528.900            
       0.130         551.250                   0.130         533.200            
       0.135         555.750                   0.135         528.900            
       0.140         553.500                   0.140         531.050            
       0.145         553.500                   0.145         526.750            
       0.150         565.000                   0.150         540.000            
       0.155         553.700                   0.155         531.360            
       0.160         551.440                   0.160         524.880            
       0.165         555.960                   0.165         529.200            
       0.170         553.700                   0.170         529.200            
       0.175         555.960                   0.175         529.200            
       0.180         555.960                   0.180         527.040            
       0.185         555.960                   0.185         524.880            
       0.190         553.700                   0.190         527.040            
       0.195         558.220                   0.195         524.880            
       0.200         558.220                   0.200         524.880            
       0.205         565.000                   0.205         524.880            
       0.210         558.220                   0.210         516.240            
       0.215         560.480                   0.215         527.040            
       0.220         560.480                   0.220         524.880            
       0.225         572.500                   0.225         527.500            
       0.230         556.470                   0.230         521.170            
       0.235         561.050                   0.235         514.840            
       0.240         565.630                   0.240         519.060            
       0.245         563.340                   0.245         516.950            
       0.250         565.630                   0.250         523.280            
       0.255         565.630                   0.255         514.840            
       0.260         567.920                   0.260         521.170            
       0.265         572.500                   0.265         514.840            
       0.270         572.500                   0.270         521.170            
       0.275         565.630                   0.275         519.060            
       0.280         572.500                   0.280         521.170            
       0.285         567.920                   0.285         519.060            
       0.290         567.920                   0.290         519.060            
       0.295         567.920                   0.295         516.950            
       0.300         577.500                   0.300         522.500            
       0.305         568.260                   0.305         514.140            
       0.310         568.260                   0.310         518.320            
       0.315         568.260                   0.315         516.230            
       0.320         572.880                   0.320         512.050            
       0.325         570.570                   0.325         516.230            
       0.330         565.950                   0.330         518.320            
       0.335         568.260                   0.335         518.320            
       0.340         565.950                   0.340         516.230            
       0.345         570.570                   0.345         518.320            
       0.350         570.570                   0.350         518.320            
       0.355         565.950                   0.355         518.320            
       0.360         565.950                   0.360         518.320            
       0.365         568.260                   0.365         516.230            
       0.370         565.950                   0.370         514.140            
       0.375         577.500                   0.375         520.800            
       0.380         563.640                   0.380         518.700            
       0.385         565.950                   0.385         514.500            
       0.390         563.640                   0.390         516.600            
       0.395         563.640                   0.395         520.800            
       0.400         565.950                   0.400         512.400            
       0.405         570.570                   0.405         516.600            
       0.410         565.950                   0.410         514.500            
       0.415         565.950                   0.415         525.000            
       0.420         563.640                   0.420         514.500            
       0.425         563.640                   0.425         514.500            
       0.430         563.640                   0.430         508.200            
       0.435         563.640                   0.435         516.600            
       0.440         561.330                   0.440         514.500            
       0.445         565.950                   0.445         506.100            
       0.450         572.880                   0.450         520.000            
       0.455         568.260                   0.455         511.680            
       0.460         563.640                   0.460         515.840            
       0.465         563.640                   0.465         509.600            
       0.470         565.950                   0.470         515.840            
       0.475         563.640                   0.475         515.840            
       0.480         568.260                   0.480         515.840            
       0.485         565.950                   0.485         511.680            
       0.490         565.950                   0.490         511.680            
       0.495         568.260                   0.495         520.000            
       0.500         568.260                   0.500         513.760            
       0.505         577.500                   0.505         515.840            
       0.510         568.260                   0.510         511.680            
       0.515         570.570                   0.515         515.840            
       0.520         570.570                   0.520         509.600            
       0.525         568.100                   0.525         518.700            
       0.530         565.800                   0.530         514.500            
       0.535         568.100                   0.535         525.000            
       0.540         568.100                   0.540         512.400            
       0.545         570.400                   0.545         516.600            
       0.550         570.400                   0.550         514.500            
       0.555         568.100                   0.555         512.400            
       0.560         575.000                   0.560         512.400            
       0.565         570.400                   0.565         516.600            
       0.570         575.000                   0.570         518.700            
       0.575         568.100                   0.575         506.100            
       0.580         570.400                   0.580         518.700            
       0.585         575.000                   0.585         508.200            
       0.590         575.000                   0.590         516.600            
       0.595         563.500                   0.595         512.400            
       0.600         577.500                   0.600         515.840            
       0.605         565.950                   0.605         511.680            
       0.610         570.570                   0.610         511.680            
       0.615         568.260                   0.615         513.760            
       0.620         565.950                   0.620         509.600            
       0.625         568.260                   0.625         509.600            
       0.630         570.570                   0.630         520.000            
       0.635         570.570                   0.635         511.680            
       0.640         570.570                   0.640         513.760            
       0.645         570.570                   0.645         511.680            
       0.650         577.500                   0.650         509.600            
       0.655         570.570                   0.655         511.680            
       0.660         572.880                   0.660         509.600            
       0.665         577.500                   0.665         503.360            
       0.670         577.500                   0.670         503.360            
       0.675         585.000                   0.675         510.000            
       0.680         577.980                   0.680         503.880            
       0.685         575.640                   0.685         505.920            
       0.690         575.640                   0.690         505.920            
       0.695         577.980                   0.695         503.880            
       0.700         573.300                   0.700         499.800            
       0.705         573.300                   0.705         501.840            
       0.710         575.640                   0.710         503.880            
       0.715         577.980                   0.715         501.840            
       0.720         575.640                   0.720         503.880            
       0.725         575.640                   0.725         499.800            
       0.730         575.640                   0.730         503.880            
       0.735         573.300                   0.735         503.880            
       0.740         570.960                   0.740         505.920            
       0.745         573.300                   0.745         501.840            
       0.750         585.000                   0.750         501.410            
       0.755         575.640                   0.755         507.500            
       0.760         573.300                   0.760         503.440            
       0.765         570.960                   0.765         501.410            
       0.770         570.960                   0.770         497.350            
       0.775         568.620                   0.775         497.350            
       0.780         561.600                   0.780         503.440            
       0.785         570.960                   0.785         501.410            
       0.790         575.640                   0.790         503.440            
       0.795         573.300                   0.795         499.380            
       0.800         570.960                   0.800         499.380            
       0.805         580.320                   0.805         499.380            
       0.810         575.640                   0.810         491.260            
       0.815         575.640                   0.815         497.350            
       0.820         570.960                   0.820         493.290            
       0.825         582.800                   0.825         500.960            
       0.830         587.500                   0.830         505.000            
       0.835         573.400                   0.835         500.960            
       0.840         575.750                   0.840         498.940            
       0.845         573.400                   0.845         498.940            
       0.850         575.750                   0.850         498.940            
       0.855         578.100                   0.855         500.960            
       0.860         575.750                   0.860         500.960            
       0.865         578.100                   0.865         498.940            
       0.870         575.750                   0.870         496.920            
       0.875         573.400                   0.875         498.940            
       0.880         580.450                   0.880         498.940            
       0.885         578.100                   0.885         494.900            
       0.890         575.750                   0.890         498.940            
       0.895         582.800                   0.895         500.960            
       0.900         582.500                   0.900         500.000            
       0.905         570.850                   0.905         500.000            
       0.910         570.850                   0.910         492.000            
       0.915         577.840                   0.915         496.000            
       0.920         575.510                   0.920         496.000            
       0.925         575.510                   0.925         492.000            
       0.930         570.850                   0.930         494.000            
       0.935         568.520                   0.935         494.000            
       0.940         573.180                   0.940         492.000            
       0.945         568.520                   0.945         496.000            
       0.950         573.180                   0.950         492.000            
       0.955         575.510                   0.955         492.000            
       0.960         573.180                   0.960         494.000            
       0.965         570.850                   0.965         494.000            
       0.970         570.850                   0.970         494.000            
       0.975         580.000                   0.975         496.470            
       0.980         566.080                   0.980         494.460            
       0.985         573.040                   0.985         498.480            
       0.990         570.720                   0.990         494.460            
       0.995         570.720                   0.995         494.460            
       1.000         568.400                   1.000         492.450            
       1.005         566.080                   1.005         496.470            
       1.010         566.080                   1.010         498.480            
       1.015         575.360                   1.015         502.500            
       1.020         568.400                   1.020         496.470            
       1.025         568.400                   1.025         496.470            
       1.030         566.080                   1.030         494.460            
       1.035         566.080                   1.035         494.460            
       1.040         566.080                   1.040         498.480            
       1.045         575.360                   1.045         502.500            
       1.050         572.500                   1.050         496.000            
       1.055         567.920                   1.055         492.000            
       1.060         567.920                   1.060         500.000            
       1.065         565.630                   1.065         492.000            
       1.070         565.630                   1.070         494.000            
       1.075         572.500                   1.075         496.000            
       1.080         572.500                   1.080         494.000            
       1.085         567.920                   1.085         490.000            
       1.090         567.920                   1.090         496.000            
       1.095         563.340                   1.095         492.000            
       1.100         567.920                   1.100         492.000            
       1.105         561.050                   1.105         490.000            
       1.110         563.340                   1.110         492.000            
       1.115         561.050                   1.115         492.000            
       1.120         565.630                   1.120         492.000            
       1.125         572.500                   1.125         491.040            
       1.130         565.630                   1.130         491.040            
       1.135         567.920                   1.135         489.060            
       1.140         558.760                   1.140         483.120            
       1.145         561.050                   1.145         487.080            
       1.150         563.340                   1.150         489.060            
       1.155         561.050                   1.155         489.060            
       1.160         563.340                   1.160         483.120            
       1.165         563.340                   1.165         489.060            
       1.170         561.050                   1.170         495.000            
       1.175         558.760                   1.175         481.140            
       1.180         563.340                   1.180         489.060            
       1.185         563.340                   1.185         481.140            
       1.190         558.760                   1.190         489.060            
       1.195         561.050                   1.195         483.120            
       1.200         572.500                   1.200         500.000            
       1.205         563.340                   1.205         486.000            
       1.210         563.340                   1.210         484.000            
       1.215         561.050                   1.215         490.000            
       1.220         563.340                   1.220         492.000            
       1.225         563.340                   1.225         500.000            
       1.230         556.470                   1.230         490.000            
       1.235         561.050                   1.235         490.000            
       1.240         563.340                   1.240         492.000            
       1.245         565.630                   1.245         486.000            
       1.250         565.630                   1.250         494.000            
       1.255         565.630                   1.255         494.000            
       1.260         561.050                   1.260         492.000            
       1.265         563.340                   1.265         492.000            
       1.270         565.630                   1.270         494.000            
       1.275         570.000                   1.275         497.500            
       1.280         556.320                   1.280         497.500            
       1.285         563.160                   1.285         489.540            
       1.290         558.600                   1.290         493.520            
       1.295         565.440                   1.295         497.500            
       1.300         563.160                   1.300         493.520            
       1.305         565.440                   1.305         497.500            
       1.310         563.160                   1.310         491.530            
       1.315         565.440                   1.315         497.500            
       1.320         565.440                   1.320         497.500            
       1.325         565.440                   1.325         489.540            
       1.330         570.000                   1.330         493.520            
       1.335         560.880                   1.335         493.520            
       1.340         565.440                   1.340         497.500            
       1.345         560.880                   1.345         493.520            
       1.350         565.000                   1.350         505.000            
       1.355         558.220                   1.355         496.920            
       1.360         560.480                   1.360         498.940            
       1.365         560.480                   1.365         494.900            
       1.370         553.700                   1.370         490.860            
       1.375         560.480                   1.375         496.920            
       1.380         565.000                   1.380         498.940            
       1.385         558.220                   1.385         496.920            
       1.390         555.960                   1.390         498.940            
       1.395         555.960                   1.395         496.920            
       1.400         558.220                   1.400         500.960            
       1.405         555.960                   1.405         498.940            
       1.410         555.960                   1.410         498.940            
       1.415         553.700                   1.415         498.940            
       1.420         558.220                   1.420         500.960            
       1.425         570.000                   1.425         505.000            
       1.430         560.880                   1.430         498.940            
       1.435         558.600                   1.435         498.940            
       1.440         556.320                   1.440         498.940            
       1.445         560.880                   1.445         498.940            
       1.450         558.600                   1.450         500.960            
       1.455         556.320                   1.455         498.940            
       1.460         554.040                   1.460         500.960            
       1.465         558.600                   1.465         505.000            
       1.470         558.600                   1.470         498.940            
       1.475         558.600                   1.475         500.960            
       1.480         560.880                   1.480         498.940            
       1.485         556.320                   1.485         500.960            
       1.490         560.880                   1.490         498.940            
       1.495         556.320                   1.495         505.000            
       1.500         572.500                   1.500         507.500            
       1.505         556.470                   1.505         499.380            
       1.510         561.050                   1.510         501.410            
       1.515         556.470                   1.515         499.380            
       1.520         556.470                   1.520         499.380            
       1.525         554.180                   1.525         497.350            
       1.530         556.470                   1.530         497.350            
       1.535         556.470                   1.535         497.350            
       1.540         561.050                   1.540         501.410            
       1.545         556.470                   1.545         499.380            
       1.550         561.050                   1.550         497.350            
       1.555         565.630                   1.555         493.290            
       1.560         556.470                   1.560         499.380            
       1.565         561.050                   1.565         499.380            
       1.570         561.050                   1.570         499.380            
       1.575         572.500                   1.575         505.000            
       1.580         561.050                   1.580         498.940            
       1.585         565.630                   1.585         498.940            
       1.590         556.470                   1.590         496.920            
       1.595         558.760                   1.595         500.960            
       1.600         561.050                   1.600         498.940            
       1.605         558.760                   1.605         498.940            
       1.610         561.050                   1.610         496.920            
       1.615         558.760                   1.615         500.960            
       1.620         558.760                   1.620         500.960            
       1.625         561.050                   1.625         500.960            
       1.630         561.050                   1.630         498.940            
       1.635         554.180                   1.635         505.000            
       1.640         556.470                   1.640         505.000            
       1.645         567.920                   1.645         505.000            
       1.650         567.500                   1.650         508.400            
       1.655         558.420                   1.655         502.250            
       1.660         558.420                   1.660         504.300            
       1.665         558.420                   1.665         504.300            
       1.670         558.420                   1.670         498.150            
       1.675         560.690                   1.675         502.250            
       1.680         560.690                   1.680         498.150            
       1.685         556.150                   1.685         502.250            
       1.690         556.150                   1.690         502.250            
       1.695         560.690                   1.695         506.350            
       1.700         558.420                   1.700         506.350            
       1.705         560.690                   1.705         504.300            
       1.710         556.150                   1.710         512.500            
       1.715         560.690                   1.715         502.250            
       1.720         560.690                   1.720         504.300            
       1.725         567.500                   1.725         510.000            
       1.730         558.420                   1.730         501.840            
       1.735         558.420                   1.735         503.880            
       1.740         551.610                   1.740         505.920            
       1.745         562.960                   1.745         510.000            
       1.750         560.690                   1.750         501.840            
       1.755         556.150                   1.755         505.920            
       1.760         558.420                   1.760         499.800            
       1.765         553.880                   1.765         499.800            
       1.770         553.880                   1.770         503.880            
       1.775         553.880                   1.775         503.880            
       1.780         553.880                   1.780         501.840            
       1.785         553.880                   1.785         505.920            
       1.790         556.150                   1.790         505.920            
       1.795         556.150                   1.795         505.920            
       1.800         562.500                   1.800         507.500            
       1.805         553.500                   1.805         507.500            
       1.810         555.750                   1.810         507.500            
       1.815         551.250                   1.815         503.440            
       1.820         551.250                   1.820         501.410            
       1.825         553.500                   1.825         497.350            
       1.830         558.000                   1.830         503.440            
       1.835         555.750                   1.835         501.410            
       1.840         553.500                   1.840         497.350            
       1.845         551.250                   1.845         499.380            
       1.850         551.250                   1.850         507.500            
       1.855         562.500                   1.855         501.410            
       1.860         562.500                   1.860         501.410            
       1.865         555.750                   1.865         507.500            
       1.870         555.750                   1.870         503.440            
       1.875         565.000                   1.875         510.000            
       1.880         555.960                   1.880         501.840            
       1.885         560.480                   1.885         503.880            
       1.890         558.220                   1.890         503.880            
       1.895         555.960                   1.895         505.920            
       1.900         555.960                   1.900         505.920            
       1.905         558.220                   1.905         505.920            
       1.910         553.700                   1.910         505.920            
       1.915         553.700                   1.915         501.840            
       1.920         558.220                   1.920         510.000            
       1.925         553.700                   1.925         503.880            
       1.930         560.480                   1.930         503.880            
       1.935         555.960                   1.935         503.880            
       1.940         558.220                   1.940         501.840            
       1.945         558.220                   1.945         501.840            
       1.950         570.000                   1.950         510.000            
       1.955         558.600                   1.955         505.920            
       1.960         560.880                   1.960         503.880            
       1.965         563.160                   1.965         501.840            
       1.970         563.160                   1.970         499.800            
       1.975         558.600                   1.975         493.680            
       1.980         563.160                   1.980         495.720            
       1.985         560.880                   1.985         501.840            
       1.990         560.880                   1.990         501.840            
       1.995         558.600                   1.995         503.880            
       2.000         558.600                   2.000         499.800            
       2.005         560.880                   2.005         499.800            
       2.010         563.160                   2.010         491.640            
       2.015         560.880                   2.015         501.840            
       2.020         556.320                   2.020         499.800            
       2.025         570.000                   2.025         503.880            
       2.030         563.160                   2.030         501.840            
       2.035         560.880                   2.035         503.880            
       2.040         558.600                   2.040         501.840            
       2.045         558.600                   2.045         501.840            
       2.050         560.880                   2.050         501.840            
       2.055         556.320                   2.055         499.800            
       2.060         554.040                   2.060         503.880            
       2.065         563.160                   2.065         503.880            
       2.070         558.600                   2.070         501.840            
       2.075         556.320                   2.075         505.920            
       2.080         554.040                   2.080         501.840            
       2.085         558.600                   2.085         505.920            
       2.090         551.760                   2.090         505.920            
       2.095         556.320                   2.095         510.000            
       2.100         553.500                   2.100         513.360            
       2.105         551.250                   2.105         511.290            
       2.110         551.250                   2.110         509.220            
       2.115         551.250                   2.115         509.220            
       2.120         553.500                   2.120         509.220            
       2.125         551.250                   2.125         513.360            
       2.130         555.750                   2.130         517.500            
       2.135         553.500                   2.135         509.220            
       2.140         551.250                   2.140         509.220            
       2.145         558.000                   2.145         511.290            
       2.150         555.750                   2.150         513.360            
       2.155         553.500                   2.155         511.290            
       2.160         553.500                   2.160         509.220            
       2.165         555.750                   2.165         509.220            
       2.170         562.500                   2.170         511.290            
       2.175         560.690                   2.175         516.230            
       2.180         558.420                   2.180         509.960            
       2.185         567.500                   2.185         505.780            
       2.190         553.880                   2.190         522.500            
       2.195         556.150                   2.195         514.140            
       2.200         556.150                   2.200         512.050            
       2.205         553.880                   2.205         505.780            
       2.210         553.880                   2.210         509.960            
       2.215         556.150                   2.215         514.140            
       2.220         558.420                   2.220         516.230            
       2.225         558.420                   2.225         512.050            
       2.230         556.150                   2.230         505.780            
       2.235         560.690                   2.235         509.960            
       2.240         556.150                   2.240         514.140            
       2.245         553.880                   2.245         512.050            
       2.250         553.880                   2.250         515.840            
       2.255         556.150                   2.255         505.440            
       2.260         553.880                   2.260         509.600            
       2.265         558.420                   2.265         513.760            
       2.270         553.880                   2.270         513.760            
       2.275         558.420                   2.275         505.440            
       2.280         567.500                   2.280         511.680            
       2.285         556.150                   2.285         520.000            
       2.290         558.420                   2.290         511.680            
       2.295         556.150                   2.295         511.680            
       2.300         553.880                   2.300         509.600            
       2.305         558.420                   2.305         513.760            
       2.310         558.420                   2.310         513.760            
       2.315         556.150                   2.315         509.600            
       2.320         556.150                   2.320         505.440            
       2.325         567.500                   2.325         512.500            
       2.330         556.150                   2.330         504.300            
       2.335         553.880                   2.335         508.400            
       2.340         558.420                   2.340         506.350            
       2.345         553.880                   2.345         512.500            
       2.350         551.610                   2.350         506.350            
       2.355         553.880                   2.355         506.350            
       2.360         558.420                   2.360         504.300            
       2.365         553.880                   2.365         506.350            
       2.370         558.420                   2.370         512.500            
       2.375         562.960                   2.375         506.350            
       2.380         558.420                   2.380         508.400            
       2.385         553.880                   2.385         512.500            
       2.390         560.690                   2.390         508.400            
       2.395         560.690                   2.395         506.350            
       2.400         570.000                   2.400         511.680            
       2.405         558.600                   2.405         511.680            
       2.410         556.320                   2.410         509.600            
       2.415         556.320                   2.415         511.680            
       2.420         556.320                   2.420         509.600            
       2.425         558.600                   2.425         505.440            
       2.430         565.440                   2.430         509.600            
       2.435         556.320                   2.435         505.440            
       2.440         554.040                   2.440         513.760            
       2.445         554.040                   2.445         505.440            
       2.450         558.600                   2.450         513.760            
       2.455         554.040                   2.455         509.600            
       2.460         554.040                   2.460         513.760            
       2.465         556.320                   2.465         511.680            
       2.470         551.760                   2.470         520.000            
       2.475         557.500                   2.475         524.300            
       2.480         546.350                   2.480         509.320            
       2.485         548.580                   2.485         517.880            
       2.490         550.810                   2.490         511.460            
       2.495         550.810                   2.495         517.880            
       2.500         550.810                   2.500         513.600            
       2.505         546.350                   2.505         517.880            
       2.510         546.350                   2.510         515.740            
       2.515         546.350                   2.515         522.160            
       2.520         544.120                   2.520         517.880            
       2.525         546.350                   2.525         515.740            
       2.530         546.350                   2.530         517.880            
       2.535         546.350                   2.535         524.300            
       2.540         546.350                   2.540         522.160            
       2.545         541.890                   2.545         535.000            
       2.550         550.000                   2.550         530.000            
       2.555         539.000                   2.555         523.640            
       2.560         536.800                   2.560         523.640            
       2.565         534.600                   2.565         523.640            
       2.570         534.600                   2.570         523.640            
       2.575         534.600                   2.575         525.760            
       2.580         536.800                   2.580         530.000            
       2.585         532.400                   2.585         530.000            
       2.590         536.800                   2.590         525.760            
       2.595         532.400                   2.595         525.760            
       2.600         528.000                   2.600         530.000            
       2.605         534.600                   2.605         525.760            
       2.610         534.600                   2.610         530.000            
       2.615         532.400                   2.615         530.000            
       2.620         523.600                   2.620         523.640            
       2.625         533.520                   2.625         535.000            
       2.630         533.520                   2.630         524.300            
       2.635         531.360                   2.635         522.160            
       2.640         533.520                   2.640         526.440            
       2.645         529.200                   2.645         524.300            
       2.650         531.360                   2.650         515.740            
       2.655         527.040                   2.655         515.740            
       2.660         531.360                   2.660         515.740            
       2.665         533.520                   2.665         517.880            
       2.670         529.200                   2.670         517.880            
       2.675         533.520                   2.675         517.880            
       2.680         533.520                   2.680         515.740            
       2.685         531.360                   2.685         517.880            
       2.690         540.000                   2.690         513.600            
       2.695         540.000                   2.695         511.460            
       2.700         551.040                   2.700         525.000            
       2.705         542.080                   2.705         514.500            
       2.710         542.080                   2.710         508.200            
       2.715         544.320                   2.715         512.400            
       2.720         544.320                   2.720         512.400            
       2.725         539.840                   2.725         512.400            
       2.730         542.080                   2.730         501.900            
       2.735         548.800                   2.735         506.100            
       2.740         546.560                   2.740         506.100            
       2.745         553.280                   2.745         504.000            
       2.750         551.040                   2.750         508.200            
       2.755         560.000                   2.755         504.000            
       2.760         555.520                   2.760         504.000            
       2.765         553.280                   2.765         499.800            
       2.770         555.520                   2.770         501.900            
       2.775         567.500                   2.775         505.920            
       2.780         560.690                   2.780         501.840            
       2.785         567.500                   2.785         510.000            
       2.790         558.420                   2.790         501.840            
       2.795         558.420                   2.795         503.880            
       2.800         560.690                   2.800         501.840            
       2.805         558.420                   2.805         503.880            
       2.810         560.690                   2.810         501.840            
       2.815         562.960                   2.815         505.920            
       2.820         558.420                   2.820         499.800            
       2.825         560.690                   2.825         499.800            
       2.830         560.690                   2.830         495.720            
       2.835         560.690                   2.835         495.720            
       2.840         556.150                   2.840         491.640            
       2.845         560.690                   2.845         491.640            
       2.850         565.000                   2.850         500.000            
       2.855         555.960                   2.855         490.000            
       2.860         560.480                   2.860         492.000            
       2.865         555.960                   2.865         490.000            
       2.870         560.480                   2.870         490.000            
       2.875         560.480                   2.875         496.000            
       2.880         553.700                   2.880         492.000            
       2.885         565.000                   2.885         492.000            
       2.890         565.000                   2.890         494.000            
       2.895         560.480                   2.895         494.000            
       2.900         565.000                   2.900         490.000            
       2.905         565.000                   2.905         490.000            
       2.910         565.000                   2.910         490.000            
       2.915         565.000                   2.915         490.000            
       2.920         565.000                   2.920         494.000            
       2.925         572.500                   2.925         494.460            
       2.930         561.050                   2.930         498.480            
       2.935         567.920                   2.935         488.430            
       2.940         563.340                   2.940         492.450            
       2.945         565.630                   2.945         494.460            
       2.950         563.340                   2.950         492.450            
       2.955         572.500                   2.955         494.460            
       2.960         563.340                   2.960         492.450            
       2.965         563.340                   2.965         494.460            
       2.970         567.920                   2.970         492.450            
       2.975         563.340                   2.975         494.460            
       2.980         567.920                   2.980         498.480            
       2.985         567.920                   2.985         498.480            
       2.990         567.920                   2.990         502.500            
       2.995         563.340                   2.995         496.470            
       3.000         577.500                   3.000         505.000            
       3.005         563.640                   3.005         494.900            
       3.010         563.640                   3.010         496.920            
       3.015         565.950                   3.015         494.900            
       3.020         561.330                   3.020         494.900            
       3.025         561.330                   3.025         500.960            
       3.030         561.330                   3.030         494.900            
       3.035         561.330                   3.035         496.920            
       3.040         559.020                   3.040         494.900            
       3.045         556.710                   3.045         494.900            
       3.050         554.400                   3.050         490.860            
       3.055         549.780                   3.055         484.800            
       3.060         554.400                   3.060         484.800            
       3.065         552.090                   3.065         486.820            
       3.070         552.090                   3.070         478.740            
       3.075         555.520                   3.075         487.500            
       3.080         560.000                   3.080         473.850            
       3.085         553.280                   3.085         473.850            
       3.090         551.040                   3.090         475.800            
       3.095         551.040                   3.095         481.650            
       3.100         548.800                   3.100         475.800            
       3.105         551.040                   3.105         481.650            
       3.110         551.040                   3.110         475.800            
       3.115         551.040                   3.115         483.600            
       3.120         548.800                   3.120         473.850            
       3.125         551.040                   3.125         471.900            
       3.130         548.800                   3.130         475.800            
       3.135         548.800                   3.135         481.650            
       3.140         553.280                   3.140         475.800            
       3.145         548.800                   3.145         473.850            
       3.150         555.000                   3.150         477.500            
       3.155         548.340                   3.155         477.500            
       3.160         550.560                   3.160         471.770            
       3.165         555.000                   3.165         477.500            
       3.170         548.340                   3.170         473.680            
       3.175         555.000                   3.175         473.680            
       3.180         548.340                   3.180         471.770            
       3.185         555.000                   3.185         471.770            
       3.190         555.000                   3.190         469.860            
       3.195         550.560                   3.195         466.040            
       3.200         555.000                   3.200         464.130            
       3.205         548.340                   3.205         464.130            
       3.210         550.560                   3.210         466.040            
       3.215         550.560                   3.215         464.130            
       3.220         550.560                   3.220         458.400            
       3.225         558.000                   3.225         467.500            
       3.230         549.000                   3.230         458.150            
       3.235         542.250                   3.235         458.150            
       3.240         546.750                   3.240         467.500            
       3.245         546.750                   3.245         458.150            
       3.250         546.750                   3.250         458.150            
       3.255         549.000                   3.255         454.410            
       3.260         549.000                   3.260         456.280            
       3.265         549.000                   3.265         450.670            
       3.270         551.250                   3.270         458.150            
       3.275         549.000                   3.275         446.930            
       3.280         553.500                   3.280         450.670            
       3.285         553.500                   3.285         446.930            
       3.290         555.750                   3.290         443.190            
       3.295         562.500                   3.295         435.710            
       3.300         565.630                   3.300         450.000            
       3.305         555.750                   3.305         437.400            
       3.310         553.280                   3.310         433.800            
       3.315         560.690                   3.315         428.400            
       3.320         565.630                   3.320         424.800            
       3.325         565.630                   3.325         421.200            
       3.330         573.040                   3.330         424.800            
       3.335         580.450                   3.335         419.400            
       3.340         580.450                   3.340         415.800            
       3.345         587.860                   3.345         414.000            
       3.350         595.270                   3.350         412.200            
       3.355         600.210                   3.355         415.800            
       3.360         617.500                   3.360         408.600            
       3.365         605.150                   3.365         408.600            
       3.370         612.560                   3.370         406.800            
       3.375         621.600                   3.375         407.250            
       3.380         619.010                   3.380         409.060            
       3.385         616.420                   3.385         394.580            
       3.390         624.190                   3.390         396.390            
       3.395         619.010                   3.395         398.200            
       3.400         624.190                   3.400         401.820            
       3.405         626.780                   3.405         410.870            
       3.410         629.370                   3.410         416.300            
       3.415         631.960                   3.415         423.540            
       3.420         634.550                   3.420         423.540            
       3.425         639.730                   3.425         430.780            
       3.430         639.730                   3.430         439.830            
       3.435         647.500                   3.435         439.830            
       3.440         647.500                   3.440         452.500            
       3.445         647.500                   3.445         448.880            
       3.450         652.500                   3.450         456.280            
       3.455         649.890                   3.455         458.150            
       3.460         649.890                   3.460         454.410            
       3.465         649.890                   3.465         461.890            
       3.470         649.890                   3.470         467.500            
       3.475         642.060                   3.475         458.150            
       3.480         647.280                   3.480         458.150            
       3.485         639.450                   3.485         458.150            
       3.490         642.060                   3.490         458.150            
       3.495         639.450                   3.495         458.150            
       3.500         644.670                   3.500         463.760            
       3.505         639.450                   3.505         458.150            
       3.510         639.450                   3.510         458.150            
       3.515         636.840                   3.515         461.890            
       3.520         634.230                   3.520         454.410            
       3.525         637.500                   3.525         461.700            
       3.530         629.850                   3.530         448.400            
       3.535         634.950                   3.535         456.000            
       3.540         634.950                   3.540         452.200            
       3.545         634.950                   3.545         448.400            
       3.550         629.850                   3.550         456.000            
       3.555         624.750                   3.555         452.200            
       3.560         632.400                   3.560         452.200            
       3.565         629.850                   3.565         456.000            
       3.570         629.850                   3.570         454.100            
       3.575         624.750                   3.575         454.100            
       3.580         634.950                   3.580         456.000            
       3.585         627.300                   3.585         454.100            
       3.590         629.850                   3.590         461.700            
       3.595         634.950                   3.595         475.000            
       3.600         644.670                   3.600         477.240            
       3.605         634.230                   3.605         473.360            
       3.610         636.840                   3.610         471.420            
       3.615         639.450                   3.615         477.240            
       3.620         652.500                   3.620         471.420            
       3.625         642.060                   3.625         485.000            
       3.630         644.670                   3.630         471.420            
       3.635         642.060                   3.635         479.180            
       3.640         639.450                   3.640         473.360            
       3.645         636.840                   3.645         471.420            
       3.650         634.230                   3.650         471.420            
       3.655         626.400                   3.655         471.420            
       3.660         626.400                   3.660         465.600            
       3.665         623.790                   3.665         465.600            
       3.670         618.570                   3.670         469.480            
       3.675         622.500                   3.675         474.240            
       3.680         612.540                   3.680         460.800            
       3.685         612.540                   3.685         468.480            
       3.690         610.050                   3.690         472.320            
       3.695         610.050                   3.695         468.480            
       3.700         612.540                   3.700         472.320            
       3.705         612.540                   3.705         466.560            
       3.710         615.030                   3.710         476.160            
       3.715         615.030                   3.715         474.240            
       3.720         617.520                   3.720         476.160            
       3.725         615.030                   3.725         474.240            
       3.730         615.030                   3.730         472.320            
       3.735         615.030                   3.735         476.160            
       3.740         615.030                   3.740         468.480            
       3.745         617.520                   3.745         480.000            
       3.750         617.500                   3.750         471.200            
       3.755         607.620                   3.755         469.300            
       3.760         602.680                   3.760         469.300            
       3.765         602.680                   3.765         469.300            
       3.770         597.740                   3.770         467.400            
       3.775         605.150                   3.775         463.600            
       3.780         597.740                   3.780         461.700            
       3.785         597.740                   3.785         461.700            
       3.790         600.210                   3.790         467.400            
       3.795         602.680                   3.795         469.300            
       3.800         600.210                   3.800         463.600            
       3.805         602.680                   3.805         471.200            
       3.810         600.210                   3.810         475.000            
       3.815         600.210                   3.815         467.400            
       3.820         605.150                   3.820         467.400            
       3.825         612.500                   3.825         478.740            
       3.830         607.600                   3.830         470.660            
       3.835         607.600                   3.835         480.760            
       3.840         600.250                   3.840         490.860            
       3.845         607.600                   3.845         484.800            
       3.850         607.600                   3.850         490.860            
       3.855         612.500                   3.855         494.900            
       3.860         605.150                   3.860         494.900            
       3.865         605.150                   3.865         496.920            
       3.870         607.600                   3.870         500.960            
       3.875         600.250                   3.875         496.920            
       3.880         605.150                   3.880         505.000            
       3.885         597.800                   3.885         498.940            
       3.890         602.700                   3.890         500.960            
       3.895         600.250                   3.895         498.940            
       3.900         610.000                   3.900         505.000            
       3.905         597.800                   3.905         494.900            
       3.910         595.360                   3.910         490.860            
       3.915         592.920                   3.915         490.860            
       3.920         597.800                   3.920         488.840            
       3.925         595.360                   3.925         484.800            
       3.930         597.800                   3.930         486.820            
       3.935         590.480                   3.935         478.740            
       3.940         592.920                   3.940         478.740            
       3.945         588.040                   3.945         476.720            
       3.950         585.600                   3.950         474.700            
       3.955         585.600                   3.955         474.700            
       3.960         590.480                   3.960         470.660            
       3.965         583.160                   3.965         470.660            
       3.970         580.720                   3.970         456.520            
       3.975         590.000                   3.975         472.500            
       3.980         582.920                   3.980         464.940            
       3.985         582.920                   3.985         459.270            
       3.990         580.560                   3.990         459.270            
       3.995         585.280                   3.995         461.160            
       4.000         578.200                   4.000         461.160            
       4.005         582.920                   4.005         459.270            
       4.010         582.920                   4.010         457.380            
       4.015         580.560                   4.015         459.270            
       4.020         582.920                   4.020         457.380            
       4.025         578.200                   4.025         451.710            
       4.030         575.840                   4.030         444.150            
       4.035         580.560                   4.035         446.040            
       4.040         580.560                   4.040         446.040            
       4.045         573.480                   4.045         446.040            
       4.050         585.000                   4.050         450.000            
       4.055         573.300                   4.055         439.200            
       4.060         577.980                   4.060         439.200            
       4.065         573.300                   4.065         437.400            
       4.070         575.640                   4.070         439.200            
       4.075         575.640                   4.075         433.800            
       4.080         575.640                   4.080         428.400            
       4.085         575.640                   4.085         432.000            
       4.090         585.000                   4.090         432.000            
       4.095         577.980                   4.095         426.600            
       4.100         577.980                   4.100         424.800            
       4.105         580.320                   4.105         432.000            
       4.110         577.980                   4.110         419.400            
       4.115         575.640                   4.115         419.400            
       4.120         570.960                   4.120         421.200            
       4.125         582.500                   4.125         430.000            
       4.130         566.190                   4.130         424.840            
       4.135         568.520                   4.135         421.400            
       4.140         570.850                   4.140         416.240            
       4.145         566.190                   4.145         414.520            
       4.150         566.190                   4.150         414.520            
       4.155         570.850                   4.155         411.080            
       4.160         570.850                   4.160         411.080            
       4.165         570.850                   4.165         409.360            
       4.170         573.180                   4.170         405.920            
       4.175         568.520                   4.175         404.200            
       4.180         568.520                   4.180         404.200            
       4.185         566.190                   4.185         402.480            
       4.190         577.840                   4.190         402.480            
       4.195         568.520                   4.195         402.480            
       4.200         582.500                   4.200         397.500            
       4.205         568.520                   4.205         389.550            
       4.210         566.190                   4.210         391.140            
       4.215         566.190                   4.215         381.600            
       4.220         563.860                   4.220         378.420            
       4.225         563.860                   4.225         384.780            
       4.230         566.190                   4.230         360.930            
       4.235         559.200                   4.235         360.930            
       4.240         561.530                   4.240         356.160            
       4.245         559.200                   4.245         349.800            
       4.250         554.540                   4.250         341.850            
       4.255         559.200                   4.255         333.900            
       4.260         554.540                   4.260         325.950            
       4.265         556.870                   4.265         321.180            
       4.270         559.200                   4.270         314.820            
       4.275         565.950                   4.275         312.500            
       4.280         561.330                   4.280         307.500            
       4.285         559.020                   4.285         300.000            
       4.290         561.330                   4.290         300.000            
       4.295         568.260                   4.295         290.000            
       4.300         570.570                   4.300         285.000            
       4.305         570.570                   4.305         282.500            
       4.310         568.260                   4.310         277.500            
       4.315         577.500                   4.315         275.000            
       4.320         570.570                   4.320         275.000            
       4.325         563.640                   4.325         270.000            
       4.330         561.330                   4.330         265.000            
       4.335         565.950                   4.335         257.500            
       4.340         563.640                   4.340         260.000            
       4.345         568.260                   4.345         255.000            
       4.350         570.960                   4.350         254.100            
       4.355         570.960                   4.355         254.100            
       4.360         570.960                   4.360         256.520            
       4.365         575.640                   4.365         258.940            
       4.370         580.320                   4.370         261.360            
       4.375         585.000                   4.375         267.410            
       4.380         580.320                   4.380         264.990            
       4.385         585.000                   4.385         277.090            
       4.390         573.300                   4.390         274.670            
       4.395         575.640                   4.395         274.670            
       4.400         575.640                   4.400         277.090            
       4.405         573.300                   4.405         279.510            
       4.410         561.600                   4.410         289.190            
       4.415         556.920                   4.415         302.500            
       4.420         545.220                   4.420         302.500            
       4.425         542.500                   4.425         322.380            
       4.430         520.800                   4.430         326.360            
       4.435         509.950                   4.435         334.320            
       4.440         501.270                   4.440         346.260            
       4.445         494.760                   4.445         362.180            
       4.450         488.250                   4.450         374.120            
       4.455         496.930                   4.455         388.050            
       4.460         494.760                   4.460         401.980            
       4.465         499.100                   4.465         411.930            
       4.470         503.440                   4.470         423.870            
       4.475         512.120                   4.475         431.830            
       4.480         514.290                   4.480         445.760            
       4.485         514.290                   4.485         459.690            
       4.490         516.460                   4.490         475.610            
       4.495         518.630                   4.495         497.500            
       4.500         523.640                   4.500         524.160            
       4.505         517.280                   4.505         537.810            
       4.510         521.520                   4.510         554.190            
       4.515         513.040                   4.515         562.380            
       4.520         508.800                   4.520         578.760            
       4.525         508.800                   4.525         586.950            
       4.530         506.680                   4.530         592.410            
       4.535         504.560                   4.535         597.870            
       4.540         502.440                   4.540         603.330            
       4.545         502.440                   4.545         614.250            
       4.550         502.440                   4.550         622.440            
       4.555         513.040                   4.555         633.360            
       4.560         521.520                   4.560         644.280            
       4.565         525.760                   4.565         666.120            
       4.570         530.000                   4.570         682.500            
       4.575         540.330                   4.575         703.800            
       4.580         542.820                   4.580         727.260            
       4.585         547.800                   4.585         735.080            
       4.590         562.740                   4.590         750.720            
       4.595         555.270                   4.595         766.360            
       4.600         565.230                   4.600         785.910            
       4.605         562.740                   4.605         801.550            
       4.610         572.700                   4.610         828.920            
       4.615         580.170                   4.615         840.650            
       4.620         580.170                   4.620         856.290            
       4.625         590.130                   4.625         871.930            
       4.630         592.620                   4.630         891.480            
       4.635         602.580                   4.635         926.670            
       4.640         612.540                   4.640         950.130            
       4.645         622.500                   4.645         977.500            
       4.650         646.400                   4.650        1017.500            
       4.655         656.500                   4.655        1056.000            
       4.660         686.800                   4.660        1094.500            
       4.665         732.250                   4.665        1127.500            
       4.670         782.750                   4.670        1166.000            
       4.675         843.350                   4.675        1204.500            
       4.680         903.950                   4.680        1232.000            
       4.685         979.700                   4.685        1259.500            
       4.690        1040.300                   4.690        1287.000            
       4.695        1100.900                   4.695        1309.000            
       4.700        1151.400                   4.700        1325.500            
       4.705        1196.850                   4.705        1347.500            
       4.710        1222.100                   4.710        1347.500            
       4.715        1252.400                   4.715        1364.000            
       4.720        1262.500                   4.720        1375.000            
       4.725        1267.500                   4.725        1385.000            
       4.730        1257.360                   4.730        1379.460            
       4.735        1226.940                   4.735        1373.920            
       4.740        1201.590                   4.740        1362.840            
       4.745        1176.240                   4.745        1351.760            
       4.750        1130.610                   4.750        1324.060            
       4.755        1084.980                   4.755        1296.360            
       4.760        1029.210                   4.760        1257.580            
       4.765         973.440                   4.765        1218.800            
       4.770         907.530                   4.770        1168.940            
       4.775         836.550                   4.775        1113.540            
       4.780         770.640                   4.780        1052.600            
       4.785         694.590                   4.785         986.120            
       4.790         613.470                   4.790         914.100            
       4.795         537.420                   4.795         819.920            
       4.800         472.500                   4.800         752.500            
       4.805         406.350                   4.805         662.200            
       4.810         328.860                   4.810         571.900            
       4.815         266.490                   4.815         472.570            
       4.820         190.890                   4.820         382.270            
       4.825         113.400                   4.825         304.010            
       4.830          62.370                   4.830         213.710            
       4.835           5.670                   4.835         138.460            
       4.840           3.780                   4.840          72.240            
       4.845           0.000                   4.845          27.090            
       4.850           1.890                   4.850          18.060            
       4.855           3.780                   4.855          27.090            
       4.860           1.890                   4.860          21.070            
       4.865           5.670                   4.865          21.070            
       4.870           1.890                   4.870          21.070            
       4.875          10.000                   4.875          22.500            
       4.880           0.000                   4.880          19.980            
       4.885           0.000                   4.885          17.460            
       4.890           0.000                   4.890           9.990            
       4.895           0.000                   4.895           4.950            
       4.900           0.000                   4.900           4.950            
       4.905           0.000                   4.905           2.430            
       4.910           0.000                   4.910           0.000            
       4.915           0.000                   4.915           0.000            
       4.920           0.000                   4.920           0.000            
       4.925           0.000                   4.925           0.000            
       4.930           0.000                   4.930           0.000            
       4.935           0.000                   4.935           0.000            
       4.940           0.000                   4.940           0.000            
       4.945           0.000                   4.945           0.000            
       4.950           0.000                   4.950           0.000            
       4.955           0.000                   4.955           0.000            
       4.960           0.000                   4.960           0.000            
       4.965           4.980                   4.965           0.000            
       4.970           2.490                   4.970           0.000            
       4.975           7.500                   4.975           0.000            
       4.980           0.000                   4.980           0.000            
       4.985           0.000                   4.985           0.000            
       4.990           2.490                   4.990           0.000            
       4.995           2.490                   4.995           0.000            
       5.000           2.490                   5.000           0.000            
       5.005           0.000                   5.005           0.000            
       5.010           4.980                   5.010           0.000            
       5.015           0.000                   5.015           0.000            
       5.020           2.490                   5.020           0.000            
       5.025           2.500                   5.025           0.000            
       5.030           0.000                   5.030           0.000            
       5.035           0.000                   5.035           0.000            
       5.040           0.000                   5.040           0.000            
       5.045           0.000                   5.045           0.000            
       5.050           0.000                   5.050           0.000            
       5.055           0.000                   5.055           0.000            
       5.060           0.000                   5.060           0.000            
       5.065           0.000                   5.065           0.000            
       5.070           0.000                   5.070           0.000            
       5.075           0.000                   5.075           0.000            
       5.080           0.000                   5.080           0.000            
       5.085           0.000                   5.085           0.000            
       5.090           0.000                   5.090           2.500            
       5.095           0.000                   5.095           0.000            
       5.100           0.000                   5.100           9.960            
       5.105           0.000                   5.105           0.000            
       5.110           0.000                   5.110           0.000            
       5.115           0.000                   5.115           4.980            
       5.120           0.000                   5.120           0.000            
       5.125           0.000                   5.125           0.000            
       5.130           0.000                   5.130           0.000            
       5.135           0.000                   5.135           2.460            
       5.140           0.000                   5.140           2.460            
       5.145           0.000                   5.145           2.460            
       5.150           0.000                   5.150          15.000            
       5.155           0.000                   5.155           2.460            
       5.160           0.000                   5.160           7.500            
       5.165           0.000                   5.165           4.980            
       5.170           0.000                   5.170           4.980            
       5.175           2.500                   5.175          14.940            
       5.180           0.000                   5.180           9.990            
       5.185           0.000                   5.185           9.990            
       5.190           5.000                   5.190          12.420            
       5.195           0.000                   5.195          14.940            
       5.200           2.500                   5.200          12.420            
       5.205           5.000                   5.205          12.420            
       5.210           2.500                   5.210          17.460            
       5.215           5.000                   5.215          22.500            
       5.220          12.500                   5.220          22.500            
       5.225          12.500                   5.225          19.980            
       5.230           7.500                   5.230          22.500            
       5.235           7.500                   5.235          22.500            
       5.240           7.500                   5.240          22.500            
       5.245           7.500                   5.245          19.980            
       5.250          19.960                   5.250          31.150            
       5.255          14.970                   5.255          24.920            
       5.260           4.990                   5.260          24.920            
       5.265           9.980                   5.265          24.920            
       5.270          14.970                   5.270          24.920            
       5.275          14.970                   5.275          18.690            
       5.280          19.960                   5.280          18.690            
       5.285         264.470                   5.285          24.920            
       5.290        1062.870                   5.290          68.530            
       5.295        1067.860                   5.295         566.930            
       5.300         753.490                   5.300        1557.500            
       5.305         678.640                   5.305        1183.700            
       5.310         718.560                   5.310         959.420            
       5.315         903.190                   5.315         890.890            
       5.320        1247.500                   5.320         971.880            
       5.325        1387.500                   5.325        1175.300            
       5.330        1282.050                   5.330        1445.400            
       5.335        1148.850                   5.335        1795.800            
       5.340        1093.350                   5.340        1825.000            
       5.345        1065.600                   5.345        1679.000            
       5.350        1037.850                   5.350        1518.400            
       5.355        1021.200                   5.355        1394.300            
       5.360        1032.300                   5.360        1314.000            
       5.365        1032.300                   5.365        1277.500            
       5.370        1037.850                   5.370        1284.800            
       5.375        1026.750                   5.375        1292.100            
       5.380         999.000                   5.380        1299.400            
       5.385         965.700                   5.385        1306.700            
       5.390         915.750                   5.390        1299.400            
       5.395         882.450                   5.395        1262.900            
       5.400         848.460                   5.400        1235.000            
       5.405         812.660                   5.405        1205.360            
       5.410         823.400                   5.410        1195.480            
       5.415         834.140                   5.415        1190.540            
       5.420         855.620                   5.420        1180.660            
       5.425         869.940                   5.425        1175.720            
       5.430         880.680                   5.430        1180.660            
       5.435         887.840                   5.435        1160.900            
       5.440         895.000                   5.440        1141.140            
       5.445         895.000                   5.445        1121.380            
       5.450         884.260                   5.450        1096.680            
       5.455         877.100                   5.455        1086.800            
       5.460         866.360                   5.460        1081.860            
       5.465         848.460                   5.465        1067.040            
       5.470         837.720                   5.470        1062.100            
       5.475         833.910                   5.475        1053.000            
       5.480         821.940                   5.480        1048.320            
       5.485         817.950                   5.485        1053.000            
       5.490         821.940                   5.490        1062.360            
       5.495         829.920                   5.495        1071.720            
       5.500         833.910                   5.500        1085.760            
       5.505         849.870                   5.505        1090.440            
       5.510         865.830                   5.510        1109.160            
       5.515         881.790                   5.515        1127.880            
       5.520         897.750                   5.520        1141.920            
       5.525         921.690                   5.525        1151.280            
       5.530         941.640                   5.530        1155.960            
       5.535         961.590                   5.535        1160.640            
       5.540         973.560                   5.540        1170.000            
       5.545         997.500                   5.545        1160.640            
       5.550        1011.840                   5.550        1170.000            
       5.555        1015.920                   5.555        1160.640            
       5.560        1015.920                   5.560        1155.960            
       5.565        1015.920                   5.565        1146.600            
       5.570        1015.920                   5.570        1132.560            
       5.575        1011.840                   5.575        1137.240            
       5.580        1003.680                   5.580        1127.880            
       5.585        1007.760                   5.585        1123.200            
       5.590        1003.680                   5.590        1113.840            
       5.595        1007.760                   5.595        1118.520            
       5.600        1011.840                   5.600        1113.840            
       5.605        1011.840                   5.605        1104.480            
       5.610        1020.000                   5.610        1090.440            
       5.615        1007.760                   5.615        1090.440            
       5.620        1011.840                   5.620        1076.400            
       5.625        1017.500                   5.625        1080.000            
       5.630        1005.290                   5.630        1058.400            
       5.635        1005.290                   5.635        1041.120            
       5.640         997.150                   5.640        1036.800            
       5.645         993.080                   5.645        1023.840            
       5.650         989.010                   5.650        1006.560            
       5.655         976.800                   5.655        1006.560            
       5.660         972.730                   5.660         993.600            
       5.665         968.660                   5.665         976.320            
       5.670         960.520                   5.670         967.680            
       5.675         952.380                   5.675         959.040            
       5.680         944.240                   5.680         946.080            
       5.685         927.960                   5.685         946.080            
       5.690         923.890                   5.690         941.760            
       5.695         919.820                   5.695         928.800            
       5.700         920.000                   5.700         930.000            
       5.705         905.280                   5.705         918.840            
       5.710         901.600                   5.710         911.400            
       5.715         894.240                   5.715         903.960            
       5.720         897.920                   5.720         915.120            
       5.725         894.240                   5.725         903.960            
       5.730         886.880                   5.730         900.240            
       5.735         886.880                   5.735         896.520            
       5.740         875.840                   5.740         896.520            
       5.745         872.160                   5.745         892.800            
       5.750         864.800                   5.750         889.080            
       5.755         857.440                   5.755         896.520            
       5.760         857.440                   5.760         896.520            
       5.765         846.400                   5.765         896.520            
       5.770         839.040                   5.770         892.800            
       5.775         840.420                   5.775         898.560            
       5.780         832.300                   5.780         898.560            
       5.785         836.360                   5.785         898.560            
       5.790         836.360                   5.790         911.520            
       5.795         848.540                   5.795         915.840            
       5.800         856.660                   5.800         937.440            
       5.805         881.020                   5.805         941.760            
       5.810         893.200                   5.810         954.720            
       5.815         921.620                   5.815         984.960            
       5.820         933.800                   5.820         997.920            
       5.825         962.220                   5.825        1019.520            
       5.830         978.460                   5.830        1032.480            
       5.835         990.640                   5.835        1041.120            
       5.840         998.760                   5.840        1062.720            
       5.845        1015.000                   5.845        1080.000            
       5.850        1020.000                   5.850        1099.760            
       5.855        1020.000                   5.855        1113.740            
       5.860        1015.920                   5.860        1123.060            
       5.865        1015.920                   5.865        1137.040            
       5.870        1015.920                   5.870        1146.360            
       5.875         999.600                   5.875        1155.680            
       5.880         987.360                   5.880        1165.000            
       5.885         971.040                   5.885        1160.340            
       5.890         954.720                   5.890        1160.340            
       5.895         922.080                   5.895        1155.680            
       5.900         885.360                   5.900        1146.360            
       5.905         840.480                   5.905        1127.720            
       5.910         779.280                   5.910        1099.760            
       5.915         709.920                   5.915        1053.160            
       5.920         628.320                   5.920         997.240            
       5.925         550.000                   5.925         932.500            
       5.930         446.600                   5.930         857.900            
       5.935         334.400                   5.935         757.190            
       5.940         215.600                   5.940         634.100            
       5.945         129.800                   5.945         488.630            
       5.950          55.000                   5.950         331.970            
       5.955           0.000                   5.955         186.500            
       5.960           0.000                   5.960          85.790            
       5.965           0.000                   5.965          37.300            
       5.970           0.000                   5.970           3.730            
       5.975           0.000                   5.975           7.460            
       5.980           0.000                   5.980          11.190            
       5.985           0.000                   5.985          11.190            
       5.990           0.000                   5.990           0.000            
       5.995           0.000                   5.995           0.000            
       6.000           0.000                   6.000           5.000            
       6.005           0.000                   6.005           0.000            
       6.010           0.000                   6.010           0.000            
       6.015           0.000                   6.015           0.000            
       6.020           0.000                   6.020           0.000            
       6.025           0.000                   6.025           0.000            
       6.030           0.000                   6.030           0.000            
       6.035           5.000                   6.035           0.000            
       6.040           5.000                   6.040           0.000            
       6.045           5.000                   6.045           0.000            
       6.050           2.480                   6.050           0.000            
       6.055           2.480                   6.055           0.000            
       6.060           5.000                   6.060           0.000            
       6.065          10.000                   6.065           0.000            
       6.070           2.480                   6.070           0.000            
       6.075          12.500                   6.075           0.000            
       6.080           2.500                   6.080           0.000            
       6.085           2.500                   6.085           0.000            
       6.090           2.500                   6.090           0.000            
       6.095           2.500                   6.095           0.000            
       6.100           7.500                   6.100           0.000            
       6.105           0.000                   6.105           0.000            
       6.110           2.500                   6.110           0.000            
       6.115           2.500                   6.115           0.000            
       6.120           0.000                   6.120           0.000            
       6.125           5.000                   6.125           0.000            
       6.130           0.000                   6.130           0.000            
       6.135           0.000                   6.135           0.000            
       6.140           2.500                   6.140           0.000            
       6.145           0.000                   6.145           0.000            
       6.150           7.500                   6.150           0.000            
       6.155           0.000                   6.155           0.000            
       6.160           2.490                   6.160           0.000            
       6.165           0.000                   6.165           0.000            
       6.170           0.000                   6.170           0.000            
       6.175           0.000                   6.175           0.000            
       6.180           0.000                   6.180           2.500            
       6.185           0.000                   6.185           2.500            
       6.190           0.000                   6.190           0.000            
       6.195           0.000                   6.195           0.000            
       6.200           0.000                   6.200           2.500            
       6.205           0.000                   6.205           0.000            
       6.210           0.000                   6.210           0.000            
       6.215           0.000                   6.215           0.000            
       6.220           0.000                   6.220           0.000            
       6.225           0.000                   6.225           0.000            
       6.230           0.000                   6.230           0.000            
       6.235           0.000                   6.235           0.000            
       6.240           0.000                   6.240           0.000            
       6.245           0.000                   6.245           2.500            
       6.250           0.000                   6.250           0.000            
       6.255           0.000                   6.255           0.000            
       6.260           0.000                   6.260           0.000            
       6.265           0.000                   6.265           0.000            
       6.270           0.000                   6.270           0.000            
       6.275           0.000                   6.275           0.000            
       6.280           0.000                   6.280           0.000            
       6.285           0.000                   6.285           0.000            
       6.290           0.000                   6.290           0.000            
       6.295           0.000                   6.295           0.000            
       6.300           0.000                   6.300           2.500            
       6.305           0.000                   6.305           0.000            
       6.310           0.000                   6.310           0.000            
       6.315           0.000                   6.315           0.000            
       6.320           0.000                   6.320           0.000            
       6.325           0.000                   6.325           0.000            
       6.330           0.000                   6.330           0.000            
       6.335           0.000                   6.335           0.000            
       6.340           0.000                   6.340           0.000            
       6.345           0.000                   6.345           0.000            
       6.350           0.000                   6.350           0.000            
       6.355           0.000                   6.355           0.000            
       6.360           0.000                   6.360           0.000            
       6.365           0.000                   6.365           0.000            
       6.370           0.000                   6.370           0.000            
       6.375           0.000                   6.375           0.000            
       6.380           0.000                   6.380           0.000            
       6.385           0.000                   6.385           0.000            
       6.390           0.000                   6.390           0.000            
       6.395           0.000                   6.395           0.000            
       6.400           0.000                   6.400           0.000            
       6.405           0.000                   6.405           0.000            
       6.410           0.000                   6.410           0.000            
       6.415           0.000                   6.415           0.000            
       6.420           0.000                   6.420           0.000            
       6.425           0.000                   6.425           0.000            
       6.430           0.000                   6.430           0.000            
       6.435           0.000                   6.435           0.000            
       6.440           0.000                   6.440           0.000            
       6.445           0.000                   6.445           2.500            
       6.450          56.720                   6.450           0.000            
       6.455         354.500                   6.455           0.000            
       6.460         701.910                   6.460           0.000            
       6.465        1077.680                   6.465         221.260            
       6.470        1006.780                   6.470         612.720            
       6.475         701.910                   6.475        1429.680            
       6.480         694.820                   6.480        2127.500            
       6.485         786.990                   6.485        1276.500            
       6.490         886.250                   6.490         859.510            
       6.495        1013.870                   6.495         927.590            
       6.500        1113.130                   6.500         961.630            
       6.505        1226.570                   6.505        1072.260            
       6.510        1340.010                   6.510        1131.830            
       6.515        1503.080                   6.515        1225.440            
       6.520        1772.500                   6.520        1327.560            
       6.525        2055.520                   6.525        1477.570            
       6.530        2206.140                   6.530        1775.210            
       6.535        2215.000                   6.535        2253.560            
       6.540        2117.540                   6.540        2551.200            
       6.545        1913.760                   6.545        2657.500            
       6.550        1709.980                   6.550        2583.090            
       6.555        1523.920                   6.555        2359.860            
       6.560        1391.020                   6.560        2040.960            
       6.565        1293.560                   6.565        1732.690            
       6.570        1222.680                   6.570        1488.200            
       6.575        1160.660                   6.575        1318.120            
       6.580        1142.940                   6.580        1222.450            
       6.585        1116.360                   6.585        1201.190            
       6.590        1089.780                   6.590        1179.930            
       6.595        1063.200                   6.595        1179.930            
       6.600        1060.000                   6.600        1189.740            
       6.605        1038.800                   6.605        1184.720            
       6.610        1021.840                   6.610        1189.740            
       6.615        1009.120                   6.615        1199.780            
       6.620         992.160                   6.620        1224.880            
       6.625         983.680                   6.625        1234.920            
       6.630         954.000                   6.630        1255.000            
       6.635         928.560                   6.635        1234.920            
       6.640         903.120                   6.640        1219.860            
       6.645         873.440                   6.645        1204.800            
       6.650         856.480                   6.650        1184.720            
       6.655         826.800                   6.655        1164.640            
       6.660         792.880                   6.660        1134.520            
       6.665         754.720                   6.665        1079.300            
       6.670         729.280                   6.670        1024.080            
       6.675         707.500                   6.675         980.000            
       6.680         673.540                   6.680         913.360            
       6.685         645.240                   6.685         850.640            
       6.690         619.770                   6.690         787.920            
       6.695         602.790                   6.695         717.360            
       6.700         577.320                   6.700         666.400            
       6.705         557.510                   6.705         627.200            
       6.710         529.210                   6.710         580.160            
       6.715         503.740                   6.715         548.800            
       6.720         483.930                   6.720         521.360            
       6.725         466.950                   6.725         493.920            
       6.730         441.480                   6.730         474.320            
       6.735         416.010                   6.735         454.720            
       6.740         396.200                   6.740         439.040            
       6.745         379.220                   6.745         423.360            
       6.750         367.500                   6.750         424.110            
       6.755         346.920                   6.755         413.560            
       6.760         333.690                   6.760         415.670            
       6.765         321.930                   6.765         419.890            
       6.770         307.230                   6.770         419.890            
       6.775         301.350                   6.775         440.990            
       6.780         286.650                   6.780         449.430            
       6.785         289.590                   6.785         455.760            
       6.790         282.240                   6.790         466.310            
       6.795         279.300                   6.795         478.970            
       6.800         286.650                   6.800         491.630            
       6.805         286.650                   6.805         504.290            
       6.810         307.230                   6.810         506.400            
       6.815         314.580                   6.815         521.170            
       6.820         326.340                   6.820         527.500            
       6.825         344.520                   6.825         539.460            
       6.830         341.040                   6.830         541.680            
       6.835         346.260                   6.835         546.120            
       6.840         349.740                   6.840         546.120            
       6.845         351.480                   6.845         555.000            
       6.850         356.700                   6.850         546.120            
       6.855         363.660                   6.855         555.000            
       6.860         367.140                   6.860         546.120            
       6.865         372.360                   6.865         548.340            
       6.870         375.840                   6.870         539.460            
       6.875         386.280                   6.875         526.140            
       6.880         401.940                   6.880         519.480            
       6.885         412.380                   6.885         501.720            
       6.890         419.340                   6.890         481.740            
       6.895         435.000                   6.895         463.980            
       6.900         451.440                   6.900         450.000            
       6.905         457.380                   6.905         421.200            
       6.910         472.230                   6.910         401.400            
       6.915         487.080                   6.915         374.400            
       6.920         504.900                   6.920         347.400            
       6.925         528.660                   6.925         322.200            
       6.930         549.450                   6.930         297.000            
       6.935         567.270                   6.935         271.800            
       6.940         596.970                   6.940         244.800            
       6.945         614.790                   6.945         212.400            
       6.950         644.490                   6.950         187.200            
       6.955         677.160                   6.955         158.400            
       6.960         700.920                   6.960         126.000            
       6.965         724.680                   6.965         104.400            
       6.970         742.500                   6.970          77.400            
       6.975         764.240                   6.975          70.000            
       6.980         767.520                   6.980          19.880            
       6.985         777.360                   6.985           0.000            
       6.990         790.480                   6.990           0.000            
       6.995         797.040                   6.995           0.000            
       7.000         806.880                   7.000           0.000            
       7.005         806.880                   7.005           0.000            
       7.010         820.000                   7.010           0.000            
       7.015         810.160                   7.015           0.000            
       7.020         810.160                   7.020           0.000            
       7.025         806.880                   7.025           0.000            
       7.030         813.440                   7.030           0.000            
       7.035         810.160                   7.035           0.000            
       7.040         806.880                   7.040           0.000            
       7.045         806.880                   7.045           0.000            
       7.050         807.500                   7.050           0.000            
       7.055         797.810                   7.055           0.000            
       7.060         794.580                   7.060           0.000            
       7.065         784.890                   7.065           0.000            
       7.070         784.890                   7.070           0.000            
       7.075         775.200                   7.075           0.000            
       7.080         771.970                   7.080           0.000            
       7.085         771.970                   7.085           0.000            
       7.090         778.430                   7.090           0.000            
       7.095         775.200                   7.095           0.000            
       7.100         778.430                   7.100           0.000            
       7.105         784.890                   7.105           0.000            
       7.110         788.120                   7.110           0.000            
       7.115         791.350                   7.115           0.000            
       7.120         804.270                   7.120           0.000            
       7.125         816.560                   7.125           0.000            
       7.130         813.100                   7.130           0.000            
       7.135         830.400                   7.135           0.000            
       7.140         826.940                   7.140           0.000            
       7.145         837.320                   7.145           0.000            
       7.150         840.780                   7.150           0.000            
       7.155         844.240                   7.155           0.000            
       7.160         844.240                   7.160           0.000            
       7.165         854.620                   7.165           0.000            
       7.170         854.620                   7.170           0.000            
       7.175         854.620                   7.175           0.000            
       7.180         851.160                   7.180           0.000            
       7.185         858.080                   7.185           0.000            
       7.190         858.080                   7.190           0.000            
       7.195         865.000                   7.195           0.000            
       7.200         872.500                   7.200           0.000            
       7.205         858.540                   7.205           0.000            
       7.210         865.520                   7.210           0.000            
       7.215         865.520                   7.215           0.000            
       7.220         869.010                   7.220           0.000            
       7.225         865.520                   7.225           0.000            
       7.230         851.560                   7.230           0.000            
       7.235         844.580                   7.235           0.000            
       7.240         848.070                   7.240           0.000            
       7.245         837.600                   7.245           0.000            
       7.250         834.110                   7.250           0.000            
       7.255         830.620                   7.255           0.000            
       7.260         820.150                   7.260           0.000            
       7.265         820.150                   7.265           0.000            
       7.270         813.170                   7.270           0.000            
       7.275         822.500                   7.275           0.000            
       7.280         809.340                   7.280           7.920            
       7.285         799.470                   7.285          23.760            
       7.290         802.760                   7.290          44.880            
       7.295         789.600                   7.295          79.200            
       7.300         786.310                   7.300         118.800            
       7.305         769.860                   7.305         166.320            
       7.310         759.990                   7.310         213.840            
       7.315         743.540                   7.315         295.680            
       7.320         727.090                   7.320         374.880            
       7.325         707.350                   7.325         456.720            
       7.330         687.610                   7.330         514.800            
       7.335         664.580                   7.335         564.960            
       7.340         631.680                   7.340         617.760            
       7.345         592.200                   7.345         660.000            
       7.350         572.500                   7.350         719.580            
       7.355         524.410                   7.355         757.170            
       7.360         487.770                   7.360         800.130            
       7.365         444.260                   7.365         837.720            
       7.370         405.330                   7.370         886.050            
       7.375         364.110                   7.375         923.640            
       7.380         336.630                   7.380         971.970            
       7.385         288.540                   7.385        1014.930            
       7.390         261.060                   7.390        1074.000            
       7.395         224.420                   7.395        1133.070            
       7.400         192.360                   7.400        1192.140            
       7.405         160.300                   7.405        1235.100            
       7.410         132.820                   7.410        1283.430            
       7.415         103.050                   7.415        1315.650            
       7.420          82.440                   7.420        1342.500            
       7.425          65.000                   7.425        1350.000            
       7.430          17.420                   7.430        1344.600            
       7.435           0.000                   7.435        1317.600            
       7.440           0.000                   7.440        1296.000            
       7.445           0.000                   7.445        1269.000            
       7.450           0.000                   7.450        1247.400            
       7.455           0.000                   7.455        1225.800            
       7.460           0.000                   7.460        1198.800            
       7.465           0.000                   7.465        1177.200            
       7.470           0.000                   7.470        1155.600            
       7.475           0.000                   7.475        1134.000            
       7.480           0.000                   7.480        1117.800            
       7.485           0.000                   7.485        1096.200            
       7.490           0.000                   7.490        1074.600            
       7.495           0.000                   7.495        1069.200            
       7.500           0.000                   7.500        1057.500            
       7.505           0.000                   7.505        1027.890            
       7.510           0.000                   7.510        1015.200            
       7.515           0.000                   7.515         994.050            
       7.520           0.000                   7.520         977.130            
       7.525           0.000                   7.525         964.440            
       7.530           0.000                   7.530         947.520            
       7.535           0.000                   7.535         934.830            
       7.540           0.000                   7.540         913.680            
       7.545           0.000                   7.545         900.990            
       7.550           0.000                   7.550         888.300            
       7.555           0.000                   7.555         884.070            
       7.560           0.000                   7.560         871.380            
       7.565           0.000                   7.565         858.690            
       7.570           0.000                   7.570         858.690            
       7.575           0.000                   7.575         861.120            
       7.580           0.000                   7.580         846.400            
       7.585           0.000                   7.585         857.440            
       7.590           0.000                   7.590         839.040            
       7.595           0.000                   7.595         839.040            
       7.600           0.000                   7.600         839.040            
       7.605           0.000                   7.605         835.360            
       7.610           0.000                   7.610         839.040            
       7.615           0.000                   7.615         857.440            
       7.620           0.000                   7.620         857.440            
       7.625           0.000                   7.625         864.800            
       7.630           0.000                   7.630         872.160            
       7.635           0.000                   7.635         886.880            
       7.640           0.000                   7.640         897.920            
       7.645           0.000                   7.645         920.000            
       7.650           0.000                   7.650         926.160            
       7.655           0.000                   7.655         930.240            
       7.660           0.000                   7.660         942.480            
       7.665           0.000                   7.665         958.800            
       7.670           0.000                   7.670         966.960            
       7.675           0.000                   7.675         975.120            
       7.680           0.000                   7.680         987.360            
       7.685           0.000                   7.685         995.520            
       7.690           0.000                   7.690        1003.680            
       7.695           0.000                   7.695        1011.840            
       7.700           0.000                   7.700        1020.000            
       7.705           0.000                   7.705        1015.920            
       7.710           0.000                   7.710        1015.920            
       7.715           0.000                   7.715        1015.920            
       7.720           0.000                   7.720        1011.840            
       7.725           0.000                   7.725        1017.500            
       7.730           0.000                   7.730        1013.430            
       7.735           0.000                   7.735        1001.220            
       7.740           0.000                   7.740        1009.360            
       7.745           0.000                   7.745        1001.220            
       7.750           0.000                   7.750         984.940            
       7.755           0.000                   7.755         984.940            
       7.760           0.000                   7.760         972.730            
       7.765           0.000                   7.765         968.660            
       7.770           0.000                   7.770         964.590            
       7.775           0.000                   7.775         952.380            
       7.780           0.000                   7.780         944.240            
       7.785           0.000                   7.785         936.100            
       7.790           0.000                   7.790         923.890            
       7.795           0.000                   7.795         911.680            
       7.800           0.000                   7.800         912.500            
       7.805           0.000                   7.805         894.250            
       7.810           0.000                   7.810         886.950            
       7.815           0.000                   7.815         876.000            
       7.820           0.000                   7.820         861.400            
       7.825           4.740                   7.825         846.800            
       7.830          22.120                   7.830         835.850            
       7.835          23.700                   7.835         817.600            
       7.840          69.520                   7.840         806.650            
       7.845          99.540                   7.845         795.700            
       7.850         164.320                   7.850         781.100            
       7.855         244.900                   7.855         762.850            
       7.860         293.880                   7.860         748.250            
       7.865         344.440                   7.865         719.050            
       7.870         395.000                   7.870         678.900            
       7.875         432.290                   7.875         652.500            
       7.880         450.950                   7.880         605.520            
       7.885         485.160                   7.885         571.590            
       7.890         522.480                   7.890         545.490            
       7.895         556.690                   7.895         498.510            
       7.900         590.900                   7.900         467.190            
       7.905         609.560                   7.905         425.430            
       7.910         622.000                   7.910         383.670            
       7.915         646.880                   7.915         347.130            
       7.920         662.430                   7.920         307.980            
       7.925         684.200                   7.925         271.440            
       7.930         693.530                   7.930         234.900            
       7.935         718.410                   7.935         206.190            
       7.940         743.290                   7.940         180.090            
       7.945         777.500                   7.945         148.770            
       7.950         816.060                   7.950         135.000            
       7.955         848.890                   7.955         107.460            
       7.960         891.100                   7.960          87.480            
       7.965         947.380                   7.965          74.520            
       7.970         989.590                   7.970          64.800            
       7.975        1031.800                   7.975          24.840            
       7.980        1069.320                   7.980          17.280            
       7.985        1088.080                   7.985          14.580            
       7.990        1111.530                   7.990           7.020            
       7.995        1139.670                   7.995           4.860            
       8.000        1144.360                   8.000           2.160            
       8.005        1158.430                   8.005           0.000            
       8.010        1163.120                   8.010           0.000            
       8.015        1172.500                   8.015           0.000            
       8.020        1163.120                   8.020           0.000            
       8.025        1165.000                   8.025           0.000            
       8.030        1146.360                   8.030           0.000            
       8.035        1123.060                   8.035           0.000            
       8.040        1104.420                   8.040           0.000            
       8.045        1081.120                   8.045           0.000            
       8.050        1071.800                   8.050           0.000            
       8.055        1062.480                   8.055           0.000            
       8.060        1053.160                   8.060           0.000            
       8.065        1039.180                   8.065           0.000            
       8.070        1029.860                   8.070           0.000            
       8.075        1020.540                   8.075           0.000            
       8.080        1015.880                   8.080           0.000            
       8.085        1006.560                   8.085           0.000            
       8.090         997.240                   8.090           0.000            
       8.095         987.920                   8.095           0.000            
       8.100         997.500                   8.100           0.000            
       8.105         977.550                   8.105           0.000            
       8.110         973.560                   8.110           0.000            
       8.115         973.560                   8.115           0.000            
       8.120         961.590                   8.120           0.000            
       8.125         961.590                   8.125          10.000            
       8.130         953.610                   8.130           0.000            
       8.135         949.620                   8.135           0.000            
       8.140         941.640                   8.140           0.000            
       8.145         933.660                   8.145           0.000            
       8.150         933.660                   8.150           0.000            
       8.155         925.680                   8.155           5.000            
       8.160         917.700                   8.160           0.000            
       8.165         913.710                   8.165           0.000            
       8.170         909.720                   8.170           0.000            
       8.175         915.000                   8.175           0.000            
       8.180         900.360                   8.180           0.000            
       8.185         896.700                   8.185           0.000            
       8.190         893.040                   8.190           0.000            
       8.195         885.720                   8.195           0.000            
       8.200         882.060                   8.200           0.000            
       8.205         878.400                   8.205           0.000            
       8.210         874.740                   8.210           0.000            
       8.215         874.740                   8.215           0.000            
       8.220         867.420                   8.220           0.000            
       8.225         867.420                   8.225           0.000            
       8.230         856.440                   8.230           0.000            
       8.235         856.440                   8.235           0.000            
       8.240         852.780                   8.240           0.000            
       8.245         849.120                   8.245           0.000            
       8.250         855.000                   8.250           0.000            
       8.255         844.740                   8.255           0.000            
       8.260         844.740                   8.260           0.000            
       8.265         841.320                   8.265           0.000            
       8.270         841.320                   8.270           0.000            
       8.275         841.320                   8.275           0.000            
       8.280         834.480                   8.280           0.000            
       8.285         834.480                   8.285           0.000            
       8.290         827.640                   8.290           0.000            
       8.295         824.220                   8.295           0.000            
       8.300         827.640                   8.300           0.000            
       8.305         820.800                   8.305           0.000            
       8.310         820.800                   8.310           0.000            
       8.315         813.960                   8.315           0.000            
       8.320         810.540                   8.320           0.000            
       8.325         810.000                   8.325           0.000            
       8.330         800.280                   8.330           0.000            
       8.335         797.040                   8.335           0.000            
       8.340         797.040                   8.340           0.000            
       8.345         793.800                   8.345           0.000            
       8.350         793.800                   8.350           0.000            
       8.355         787.320                   8.355          16.200            
       8.360         787.320                   8.360          29.160            
       8.365         780.840                   8.365          46.980            
       8.370         774.360                   8.370          71.280            
       8.375         771.120                   8.375         116.640            
       8.380         764.640                   8.380         168.480            
       8.385         754.920                   8.385         226.800            
       8.390         751.680                   8.390         309.420            
       8.395         741.960                   8.395         405.000            
       8.400         732.500                   8.400         473.550            
       8.405         709.060                   8.405         536.690            
       8.410         688.550                   8.410         577.280            
       8.415         665.110                   8.415         640.420            
       8.420         644.600                   8.420         699.050            
       8.425         606.510                   8.425         762.190            
       8.430         577.210                   8.430         807.290            
       8.435         530.330                   8.435         843.370            
       8.440         492.240                   8.440         883.960            
       8.445         445.360                   8.445         924.550            
       8.450         398.480                   8.450         965.140            
       8.455         354.530                   8.455        1001.220            
       8.460         307.650                   8.460        1037.300            
       8.465         263.700                   8.465        1082.400            
       8.470         222.680                   8.470        1127.500            
       8.475         192.500                   8.475        1162.610            
       8.480         154.770                   8.480        1201.180            
       8.485         117.040                   8.485        1234.240            
       8.490          92.400                   8.490        1256.280            
       8.495          62.370                   8.495        1278.320            
       8.500          26.950                   8.500        1294.850            
       8.505           9.240                   8.505        1305.870            
       8.510           0.000                   8.510        1316.890            
       8.515           0.000                   8.515        1322.400            
       8.520           0.000                   8.520        1322.400            
       8.525           0.000                   8.525        1333.420            
       8.530           0.000                   8.530        1349.950            
       8.535           0.000                   8.535        1355.460            
       8.540           0.000                   8.540        1366.480            
       8.545           0.000                   8.545        1377.500            
       8.550           0.000                   8.550        1392.500            
       8.555           0.000                   8.555        1386.930            
       8.560           0.000                   8.560        1386.930            
       8.565           0.000                   8.565        1375.790            
       8.570           0.000                   8.570        1364.650            
       8.575           0.000                   8.575        1347.940            
       8.580           0.000                   8.580        1320.090            
       8.585           0.000                   8.585        1297.810            
       8.590           0.000                   8.590        1269.960            
       8.595           0.000                   8.595        1247.680            
       8.600           0.000                   8.600        1225.400            
       8.605           0.000                   8.605        1197.550            
       8.610           0.000                   8.610        1169.700            
       8.615           0.000                   8.615        1136.280            
       8.620           0.000                   8.620        1114.000            
       8.625           0.000                   8.625        1082.500            
       8.630           0.000                   8.630        1060.850            
       8.635           0.000                   8.635        1034.870            
       8.640           0.000                   8.640        1008.890            
       8.645           0.000                   8.645         991.570            
       8.650           0.000                   8.650         974.250            
       8.655           0.000                   8.655         952.600            
       8.660           0.000                   8.660         939.610            
       8.665           0.000                   8.665         926.620            
       8.670           0.000                   8.670         913.630            
       8.675           0.000                   8.675         904.970            
       8.680           0.000                   8.680         883.320            
       8.685           0.000                   8.685         891.980            
       8.690           0.000                   8.690         883.320            
       8.695           0.000                   8.695         891.980            
       8.700           0.000                   8.700         889.200            
       8.705           0.000                   8.705         889.200            
       8.710           0.000                   8.710         889.200            
       8.715           0.000                   8.715         897.000            
       8.720           0.000                   8.720         904.800            
       8.725           0.000                   8.725         904.800            
       8.730           0.000                   8.730         916.500            
       8.735           0.000                   8.735         920.400            
       8.740           0.000                   8.740         928.200            
       8.745           0.000                   8.745         939.900            
       8.750           0.000                   8.750         943.800            
       8.755           0.000                   8.755         951.600            
       8.760           0.000                   8.760         967.200            
       8.765           0.000                   8.765         967.200            
       8.770           0.000                   8.770         975.000            
       8.775           0.000                   8.775         982.450            
       8.780           0.000                   8.780         986.460            
       8.785           0.000                   8.785         986.460            
       8.790           0.000                   8.790         994.480            
       8.795           0.000                   8.795         994.480            
       8.800           0.000                   8.800         994.480            
       8.805           0.000                   8.805         998.490            
       8.810           0.000                   8.810         994.480            
       8.815           0.000                   8.815        1002.500            
       8.820           0.000                   8.820         998.490            
       8.825           0.000                   8.825         990.470            
       8.830           0.000                   8.830         986.460            
       8.835           0.000                   8.835         982.450            
       8.840           0.000                   8.840         974.430            
       8.845           0.000                   8.845         966.410            
       8.850           0.000                   8.850         967.500            
       8.855           0.000                   8.855         952.020            
       8.860           0.000                   8.860         944.280            
       8.865           0.000                   8.865         936.540            
       8.870           0.000                   8.870         921.060            
       8.875           0.000                   8.875         905.580            
       8.880           0.000                   8.880         901.710            
       8.885           0.000                   8.885         890.100            
       8.890           0.000                   8.890         882.360            
       8.895           0.000                   8.895         870.750            
       8.900           0.000                   8.900         870.750            
       8.905           0.000                   8.905         859.140            
       8.910           0.000                   8.910         855.270            
       8.915           0.000                   8.915         851.400            
       8.920           0.000                   8.920         851.400            
       8.925           0.000                   8.925         861.560            
       8.930           0.000                   8.930         857.940            
       8.935           0.000                   8.935         857.940            
       8.940           0.000                   8.940         861.560            
       8.945           0.000                   8.945         865.180            
       8.950           0.000                   8.950         865.180            
       8.955           0.000                   8.955         868.800            
       8.960           0.000                   8.960         876.040            
       8.965           0.000                   8.965         872.420            
       8.970           0.000                   8.970         879.660            
       8.975           0.000                   8.975         886.900            
       8.980           0.000                   8.980         890.520            
       8.985           0.000                   8.985         894.140            
       8.990           0.000                   8.990         897.760            
       8.995           0.000                   8.995         905.000            
       9.000           0.000                   9.000         916.370            
       9.005           0.000                   9.005         912.660            
       9.010           0.000                   9.010         916.370            
       9.015           0.000                   9.015         916.370            
       9.020           0.000                   9.020         908.950            
       9.025           0.000                   9.025         923.790            
       9.030           0.000                   9.030         923.790            
       9.035           0.000                   9.035         923.790            
       9.040           0.000                   9.040         920.080            
       9.045           0.000                   9.045         927.500            
       9.050           0.000                   9.050         923.790            
       9.055           0.000                   9.055         927.500            
       9.060           0.000                   9.060         927.500            
       9.065           0.000                   9.065         916.370            
       9.070           0.000                   9.070         923.790            
       9.075           0.000                   9.075         925.000            
       9.080           0.000                   9.080         925.000            
       9.085           0.000                   9.085         910.200            
       9.090           0.000                   9.090         906.500            
       9.095           0.000                   9.095         910.200            
       9.100           0.000                   9.100         910.200            
       9.105           0.000                   9.105         902.800            
       9.110           0.000                   9.110         906.500            
       9.115           0.000                   9.115         899.100            
       9.120           0.000                   9.120         906.500            
       9.125           0.000                   9.125         906.500            
       9.130           0.000                   9.130         902.800            
       9.135           0.000                   9.135         899.100            
       9.140           0.000                   9.140         906.500            
       9.145           0.000                   9.145         899.100            
       9.150           0.000                   9.150         911.400            
       9.155           0.000                   9.155         907.680            
       9.160           0.000                   9.160         907.680            
       9.165           0.000                   9.165         911.400            
       9.170           0.000                   9.170         911.400            
       9.175           0.000                   9.175         918.840            
       9.180           0.000                   9.180         918.840            
       9.185           0.000                   9.185         918.840            
       9.190           0.000                   9.190         926.280            
       9.195           0.000                   9.195         930.000            
       9.200           0.000                   9.200         922.560            
       9.205           0.000                   9.205         911.400            
       9.210          14.960                   9.210         918.840            
       9.215          32.470                   9.215         911.400            
       9.220          42.500                   9.220         907.680            
       9.225          58.880                   9.225         907.500            
       9.230          71.680                   9.230         882.090            
       9.235          97.280                   9.235         878.460            
       9.240         128.000                   9.240         860.310            
       9.245         161.280                   9.245         849.420            
       9.250         189.440                   9.250         831.270            
       9.255         225.280                   9.255         813.120            
       9.260         271.360                   9.260         791.340            
       9.265         320.000                   9.265         776.820            
       9.270         358.400                   9.270         744.150            
       9.275         407.040                   9.275         726.000            
       9.280         453.120                   9.280         689.700            
       9.285         504.320                   9.285         664.290            
       9.290         565.760                   9.290         631.620            
       9.295         640.000                   9.295         609.840            
       9.300         723.690                   9.300         570.000            
       9.305         785.180                   9.305         526.680            
       9.310         856.130                   9.310         494.760            
       9.315         931.810                   9.315         462.840            
       9.320         983.840                   9.320         424.080            
       9.325        1040.600                   9.325         392.160            
       9.330        1083.170                   9.330         357.960            
       9.335        1111.550                   9.335         332.880            
       9.340        1139.930                   9.340         303.240            
       9.345        1158.850                   9.345         285.000            
       9.350        1168.310                   9.350         250.800            
       9.355        1173.040                   9.355         234.840            
       9.360        1182.500                   9.360         212.040            
       9.365        1182.500                   9.365         177.840            
       9.370        1177.770                   9.370         161.880            
       9.375        1182.500                   9.375         145.000            
       9.380        1168.310                   9.380         117.160            
       9.385        1163.580                   9.385         107.300            
       9.390        1149.390                   9.390          84.680            
       9.395        1130.470                   9.395          72.500            
       9.400        1121.010                   9.400          34.800            
       9.405        1102.090                   9.405          24.940            
       9.410        1087.900                   9.410          19.720            
       9.415        1073.710                   9.415          14.500            
       9.420        1059.520                   9.420          12.180            
       9.425        1045.330                   9.425           0.000            
       9.430        1040.600                   9.430           0.000            
       9.435        1031.140                   9.435           0.000            
       9.440        1031.140                   9.440           0.000            
       9.445        1021.680                   9.445           0.000            
       9.450        1032.500                   9.450           0.000            
       9.455        1015.980                   9.455           0.000            
       9.460        1011.850                   9.460           0.000            
       9.465        1007.720                   9.465           0.000            
       9.470        1007.720                   9.470           0.000            
       9.475        1007.720                   9.475           0.000            
       9.480        1007.720                   9.480           0.000            
       9.485        1003.590                   9.485           0.000            
       9.490         999.460                   9.490           0.000            
       9.495         999.460                   9.495           0.000            
       9.500        1003.590                   9.500           0.000            
       9.505         999.460                   9.505           0.000            
       9.510         999.460                   9.510           0.000            
       9.515        1007.720                   9.515           0.000            
       9.520        1003.590                   9.520           0.000            
       9.525        1016.750                   9.525           0.000            
       9.530        1012.600                   9.530           0.000            
       9.535        1004.300                   9.535           0.000            
       9.540        1016.750                   9.540           0.000            
       9.545        1016.750                   9.545           0.000            
       9.550        1016.750                   9.550           0.000            
       9.555        1020.900                   9.555           0.000            
       9.560        1020.900                   9.560           0.000            
       9.565        1020.900                   9.565           7.480            
       9.570        1016.750                   9.570           5.000            
       9.575        1029.200                   9.575           0.000            
       9.580        1029.200                   9.580           2.480            
       9.585        1029.200                   9.585           5.000            
       9.590        1037.500                   9.590          10.000            
       9.595        1033.350                   9.595           5.000            
       9.600        1043.310                   9.600           0.000            
       9.605        1034.930                   9.605           0.000            
       9.610        1034.930                   9.610           0.000            
       9.615        1034.930                   9.615           0.000            
       9.620        1039.120                   9.620           4.980            
       9.625        1039.120                   9.625           4.980            
       9.630        1034.930                   9.630           0.000            
       9.635        1034.930                   9.635           0.000            
       9.640        1034.930                   9.640           2.490            
       9.645        1043.310                   9.645           4.980            
       9.650        1039.120                   9.650           0.000            
       9.655        1043.310                   9.655           0.000            
       9.660        1047.500                   9.660           0.000            
       9.665        1043.310                   9.665           4.980            
       9.670        1047.500                   9.670           7.500            
       9.675        1057.500                   9.675          10.000            
       9.680        1049.040                   9.680           5.000            
       9.685        1044.810                   9.685           0.000            
       9.690        1040.580                   9.690           0.000            
       9.695        1036.350                   9.695           2.480            
       9.700        1036.350                   9.700           2.480            
       9.705        1027.890                   9.705           0.000            
       9.710        1023.660                   9.710           2.480            
       9.715        1019.430                   9.715           5.000            
       9.720        1023.660                   9.720           5.000            
       9.725        1010.970                   9.725          10.000            
       9.730        1010.970                   9.730           0.000            
       9.735        1006.740                   9.735           2.480            
       9.740        1015.200                   9.740           7.480            
       9.745         998.280                   9.745           2.480            
       9.750        1005.000                   9.750          12.480            
       9.755         988.920                   9.755           4.980            
       9.760         988.920                   9.760           4.980            
       9.765         984.900                   9.765           2.460            
       9.770         992.940                   9.770           7.500            
       9.775         984.900                   9.775          15.000            
       9.780         980.880                   9.780           7.500            
       9.785         976.860                   9.785           7.500            
       9.790         976.860                   9.790           2.460            
       9.795         968.820                   9.795           2.460            
       9.800         968.820                   9.800           4.980            
       9.805         964.800                   9.805           7.500            
       9.810         952.740                   9.810           0.000            
       9.815         952.740                   9.815           7.500            
       9.820         952.740                   9.820           2.460            
       9.825         957.500                   9.825          10.000            
       9.830         942.180                   9.830           5.000            
       9.835         949.840                   9.835          10.000            
       9.840         946.010                   9.840           0.000            
       9.845         942.180                   9.845           5.000            
       9.850         934.520                   9.850           0.000            
       9.855         942.180                   9.855           7.480            
       9.860         938.350                   9.860           2.480            
       9.865         942.180                   9.865           0.000            
       9.870         938.350                   9.870           5.000            
       9.875         949.840                   9.875           2.480            
       9.880         946.010                   9.880           0.000            
       9.885         953.670                   9.885           5.000            
       9.890         949.840                   9.890           0.000            
       9.895         949.840                   9.895           2.480            
       9.900         961.520                   9.900          10.000            
       9.905         953.440                   9.905           2.480            
       9.910         957.480                   9.910           0.000            
       9.915         961.520                   9.915           0.000            
       9.920         957.480                   9.920           0.000            
       9.925         969.600                   9.925           5.000            
       9.930         969.600                   9.930           0.000            
       9.935         973.640                   9.935           5.000            
       9.940         973.640                   9.940           0.000            
       9.945         981.720                   9.945           0.000            
       9.950         993.840                   9.950           0.000            
       9.955         993.840                   9.955           0.000            
       9.960        1001.920                   9.960           0.000            
       9.965        1001.920                   9.965           0.000            
       9.970        1010.000                   9.970           0.000            
       9.975        1016.260                   9.975           2.490            
       9.980        1016.260                   9.980           0.000            
       9.985        1020.530                   9.985           0.000            
       9.990        1024.800                   9.990           2.490            
       9.995        1029.070                   9.995           0.000            
      10.000        1029.070                  10.000           0.000            
      10.005        1033.340                  10.005           0.000            
      10.010        1041.880                  10.010           0.000            
      10.015        1041.880                  10.015           0.000            
      10.020        1046.150                  10.020           0.000            
      10.025        1046.150                  10.025           0.000            
      10.030        1054.690                  10.030           0.000            
      10.035        1058.960                  10.035           0.000            
      10.040        1058.960                  10.040           7.500            
      10.045        1067.500                  10.045           4.980            
      10.050        1075.760                  10.050          22.200            
      10.055        1080.280                  10.055          32.190            
      10.060        1089.320                  10.060          29.970            
      10.065        1089.320                  10.065          34.780            
      10.070        1093.840                  10.070          42.180            
      10.075        1098.360                  10.075          57.350            
      10.080        1107.400                  10.080          59.940            
      10.085        1111.920                  10.085          62.160            
      10.090        1116.440                  10.090          69.930            
      10.095        1111.920                  10.095          77.330            
      10.100        1120.960                  10.100          82.140            
      10.105        1116.440                  10.105          87.320            
      10.110        1130.000                  10.110          87.320            
      10.115        1120.960                  10.115          87.320            
      10.120        1120.960                  10.120          92.500            
      10.125        1127.000                  10.125         102.500            
      10.130        1131.900                  10.130          89.790            
      10.135        1131.900                  10.135          84.870            
      10.140        1136.800                  10.140          84.870            
      10.145        1141.700                  10.145          77.490            
      10.150        1146.600                  10.150          74.620            
      10.155        1151.500                  10.155          69.700            
      10.160        1156.400                  10.160          72.160            
      10.165        1161.300                  10.165          67.240            
      10.170        1171.100                  10.170          67.240            
      10.175        1185.800                  10.175          72.160            
      10.180        1185.800                  10.180          67.240            
      10.185        1200.500                  10.185          67.240            
      10.190        1215.200                  10.190          82.410            
      10.195        1225.000                  10.195          74.620            
      10.200        1240.740                  10.200          87.320            
      10.205        1246.230                  10.205          87.320            
      10.210        1268.190                  10.210          96.200            
      10.215        1284.660                  10.215         109.520            
      10.220        1295.640                  10.220         139.120            
      10.225        1312.110                  10.225         139.120            
      10.230        1328.580                  10.230         167.240            
      10.235        1339.560                  10.235         193.880            
      10.240        1345.050                  10.240         222.000            
      10.245        1361.520                  10.245         254.560            
      10.250        1367.010                  10.250         291.560            
      10.255        1372.500                  10.255         319.680            
      10.260        1361.520                  10.260         338.920            
      10.265        1361.520                  10.265         356.680            
      10.270        1345.050                  10.270         370.000            
      10.275        1335.000                  10.275         387.600            
      10.280        1297.620                  10.280         395.250            
      10.285        1276.260                  10.285         415.650            
      10.290        1238.880                  10.290         433.500            
      10.295        1196.160                  10.295         451.350            
      10.300        1158.780                  10.300         471.750            
      10.305        1116.060                  10.305         489.600            
      10.310        1057.320                  10.310         512.550            
      10.315        1003.920                  10.315         532.950            
      10.320         939.840                  10.320         553.350            
      10.325         875.760                  10.325         571.200            
      10.330         806.340                  10.330         596.700            
      10.335         736.920                  10.335         614.550            
      10.340         667.500                  10.340         624.750            
      10.345         592.740                  10.345         637.500            
      10.350         537.500                  10.350         663.520            
      10.355         462.250                  10.355         673.090            
      10.360         404.200                  10.360         685.850            
      10.365         344.000                  10.365         701.800            
      10.370         294.550                  10.370         714.560            
      10.375         242.950                  10.375         736.890            
      10.380         195.650                  10.380         740.080            
      10.385         161.250                  10.385         746.460            
      10.390         124.700                  10.390         756.030            
      10.395         101.050                  10.395         768.790            
      10.400          73.100                  10.400         771.980            
      10.405          55.900                  10.405         784.740            
      10.410          12.900                  10.410         784.740            
      10.415           2.150                  10.415         791.120            
      10.420           0.000                  10.420         797.500            
      10.425           0.000                  10.425         806.760            
      10.430           0.000                  10.430         796.800            
      10.435           0.000                  10.435         810.080            
      10.440           0.000                  10.440         810.080            
      10.445           0.000                  10.445         813.400            
      10.450           0.000                  10.450         813.400            
      10.455           0.000                  10.455         816.720            
      10.460           0.000                  10.460         816.720            
      10.465           0.000                  10.465         820.040            
      10.470           0.000                  10.470         820.040            
      10.475           0.000                  10.475         823.360            
      10.480           0.000                  10.480         830.000            
      10.485           0.000                  10.485         826.680            
      10.490           0.000                  10.490         826.680            
      10.495           0.000                  10.495         830.000            
      10.500           0.000                  10.500         828.630            
      10.505           0.000                  10.505         825.220            
      10.510           0.000                  10.510         828.630            
      10.515           0.000                  10.515         825.220            
      10.520           0.000                  10.520         832.040            
      10.525           0.000                  10.525         832.040            
      10.530           0.000                  10.530         832.040            
      10.535           0.000                  10.535         838.860            
      10.540           0.000                  10.540         842.270            
      10.545           0.000                  10.545         838.860            
      10.550           0.000                  10.550         842.270            
      10.555           0.000                  10.555         842.270            
      10.560           0.000                  10.560         845.680            
      10.565           0.000                  10.565         842.270            
      10.570           0.000                  10.570         852.500            
      10.575           0.000                  10.575         857.750            
      10.580           0.000                  10.580         854.100            
      10.585           0.000                  10.585         861.400            
      10.590           0.000                  10.590         854.100            
      10.595           0.000                  10.595         872.350            
      10.600           0.000                  10.600         876.000            
      10.605           0.000                  10.605         879.650            
      10.610           0.000                  10.610         879.650            
      10.615           2.500                  10.615         890.600            
      10.620           5.000                  10.620         890.600            
      10.625           2.500                  10.625         897.900            
      10.630           0.000                  10.630         897.900            
      10.635           2.500                  10.635         901.550            
      10.640           0.000                  10.640         912.500            
      10.645           0.000                  10.645         908.850            
      10.650           4.980                  10.650         922.500            
      10.655           2.490                  10.655         915.120            
      10.660           4.980                  10.660         911.430            
      10.665           2.490                  10.665         911.430            
      10.670           0.000                  10.670         918.810            
      10.675           0.000                  10.675         911.430            
      10.680           2.490                  10.680         911.430            
      10.685           2.490                  10.685         911.430            
      10.690           4.980                  10.690         907.740            
      10.695           4.980                  10.695         904.050            
      10.700           7.500                  10.700         904.050            
      10.705           2.490                  10.705         896.670            
      10.710           4.980                  10.710         892.980            
      10.715           0.000                  10.715         889.290            
      10.720           2.490                  10.720         881.910            
      10.725           7.500                  10.725         887.500            
      10.730          15.000                  10.730         876.850            
      10.735           4.980                  10.735         869.750            
      10.740           4.980                  10.740         869.750            
      10.745           2.460                  10.745         862.650            
      10.750           4.980                  10.750         866.200            
      10.755           0.000                  10.755         859.100            
      10.760           7.500                  10.760         862.650            
      10.765           7.500                  10.765         859.100            
      10.770           4.980                  10.770         855.550            
      10.775           2.460                  10.775         852.000            
      10.780           7.500                  10.780         844.900            
      10.785           7.500                  10.785         852.000            
      10.790           2.460                  10.790         844.900            
      10.795           4.980                  10.795         844.900            
      10.800          10.000                  10.800         837.900            
      10.805           7.480                  10.805         831.060            
      10.810           5.000                  10.810         827.640            
      10.815           5.000                  10.815         831.060            
      10.820           7.480                  10.820         834.480            
      10.825           5.000                  10.825         841.320            
      10.830           5.000                  10.830         834.480            
      10.835           5.000                  10.835         834.480            
      10.840           5.000                  10.840         837.900            
      10.845           2.480                  10.845         837.900            
      10.850           2.480                  10.850         834.480            
      10.855           5.000                  10.855         844.740            
      10.860           0.000                  10.860         848.160            
      10.865           7.480                  10.865         855.000            
      10.870           2.480                  10.870         855.000            
      10.875           7.480                  10.875         863.460            
      10.880           5.000                  10.880         859.770            
      10.885          10.000                  10.885         856.080            
      10.890           5.000                  10.890         867.150            
      10.895          10.000                  10.895         870.840            
      10.900           2.480                  10.900         874.530            
      10.905           5.000                  10.905         874.530            
      10.910           0.000                  10.910         878.220            
      10.915           7.480                  10.915         885.600            
      10.920           0.000                  10.920         889.290            
      10.925           5.000                  10.925         896.670            
      10.930           0.000                  10.930         900.360            
      10.935           0.000                  10.935         904.050            
      10.940           0.000                  10.940         904.050            
      10.945           7.480                  10.945         922.500            
      10.950          10.000                  10.950         920.150            
      10.955           5.000                  10.955         916.300            
      10.960           2.480                  10.960         924.000            
      10.965           2.480                  10.965         927.850            
      10.970           7.480                  10.970         931.700            
      10.975          10.000                  10.975         931.700            
      10.980           5.000                  10.980         935.550            
      10.985           2.480                  10.985         939.400            
      10.990           2.480                  10.990         947.100            
      10.995           5.000                  10.995         947.100            
      11.000           5.000                  11.000         954.800            
      11.005           7.480                  11.005         954.800            
      11.010           7.480                  11.010         947.100            
      11.015           5.000                  11.015         954.800            
      11.020          10.000                  11.020         962.500            
      11.025           7.040                  11.025         965.000            
      11.030          12.160                  11.030         957.280            
      11.035          17.280                  11.035         957.280            
      11.040          12.160                  11.040         949.560            
      11.045          29.440                  11.045         957.280            
      11.050          49.920                  11.050         949.560            
      11.055          69.760                  11.055         949.560            
      11.060          80.000                  11.060         953.420            
      11.065          84.480                  11.065         957.280            
      11.070          94.720                  11.070         937.980            
      11.075         104.960                  11.075         941.840            
      11.080         114.560                  11.080         937.980            
      11.085         127.360                  11.085         922.540            
      11.090         142.080                  11.090         910.960            
      11.095         160.000                  11.095         899.380            
      11.100         176.250                  11.100         895.000            
      11.105         194.580                  11.105         873.520            
      11.110         204.450                  11.110         859.200            
      11.115         211.500                  11.115         837.720            
      11.120         227.010                  11.120         819.820            
      11.125         236.880                  11.125         801.920            
      11.130         262.260                  11.130         791.180            
      11.135         269.310                  11.135         769.700            
      11.140         276.360                  11.140         751.800            
      11.145         291.870                  11.145         741.060            
      11.150         301.740                  11.150         719.580            
      11.155         317.250                  11.155         705.260            
      11.160         327.120                  11.160         683.780            
      11.165         339.810                  11.165         662.300            
      11.170         352.500                  11.170         644.400            
      11.175         373.380                  11.175         642.500            
      11.180         375.920                  11.180         616.800            
      11.185         393.700                  11.185         603.950            
      11.190         416.560                  11.190         591.100            
      11.195         431.800                  11.195         580.820            
      11.200         447.040                  11.200         562.830            
      11.205         464.820                  11.205         557.690            
      11.210         490.220                  11.210         542.270            
      11.215         510.540                  11.215         524.280            
      11.220         528.320                  11.220         516.570            
      11.225         551.180                  11.225         506.290            
      11.230         574.040                  11.230         490.870            
      11.235         599.440                  11.235         478.020            
      11.240         617.220                  11.240         472.880            
      11.245         635.000                  11.245         457.460            
************.***    ********.**               11.250         447.500            
************.***    ********.**               11.255         426.020            
************.***    ********.**               11.260         411.700            
************.***    ********.**               11.265         399.170            
************.***    ********.**               11.270         374.110            
************.***    ********.**               11.275         363.370            
************.***    ********.**               11.280         347.260            
************.***    ********.**               11.285         334.730            
************.***    ********.**               11.290         311.460            
************.***    ********.**               11.295         298.930            
************.***    ********.**               11.300         289.980            
************.***    ********.**               11.305         268.500            
************.***    ********.**               11.310         254.180            
************.***    ********.**               11.315         229.120            
************.***    ********.**               11.320         223.750            
************.***    ********.**               11.325         220.000            
************.***    ********.**               11.330         204.160            
************.***    ********.**               11.335         187.440            
************.***    ********.**               11.340         174.240            
************.***    ********.**               11.345         161.920            
************.***    ********.**               11.350         154.880            
************.***    ********.**               11.355         141.680            
************.***    ********.**               11.360         132.000            
************.***    ********.**               11.365         119.680            
************.***    ********.**               11.370         119.680            
************.***    ********.**               11.375         110.000            
************.***    ********.**               11.380         104.720            
************.***    ********.**               11.385          94.160            
************.***    ********.**               11.390          89.760            
************.***    ********.**               11.395          81.840            
************.***    ********.**               11.400          77.500            
************.***    ********.**               11.405          67.270            
************.***    ********.**               11.410          34.720            
************.***    ********.**               11.415          32.240            
************.***    ********.**               11.420          24.800            
************.***    ********.**               11.425          24.800            
************.***    ********.**               11.430          14.880            
************.***    ********.**               11.435          12.400            
************.***    ********.**               11.440          12.400            
************.***    ********.**               11.445           7.440            
************.***    ********.**               11.450           4.960            
************.***    ********.**               11.455           2.480            
************.***    ********.**               11.460           0.000            
************.***    ********.**               11.465           0.000            
************.***    ********.**               11.470           0.000            
************.***    ********.**               11.475           2.500            
************.***    ********.**               11.480           0.000            
************.***    ********.**               11.485           0.000            
************.***    ********.**               11.490           0.000            
************.***    ********.**               11.495           0.000            
************.***    ********.**               11.500           0.000            
************.***    ********.**               11.505           0.000            
************.***    ********.**               11.510           0.000            
************.***    ********.**               11.515           0.000            
************.***    ********.**               11.520           0.000            
************.***    ********.**               11.525           0.000            
************.***    ********.**               11.530           0.000            
************.***    ********.**               11.535           0.000            
************.***    ********.**               11.540           0.000            
************.***    ********.**               11.545           0.000            
************.***    ********.**               11.550           0.000            
************.***    ********.**               11.555           0.000            
************.***    ********.**               11.560           0.000            
************.***    ********.**               11.565           0.000            
************.***    ********.**               11.570           0.000            
************.***    ********.**               11.575           0.000            
************.***    ********.**               11.580           0.000            
************.***    ********.**               11.585           0.000            
************.***    ********.**               11.590           0.000            
************.***    ********.**               11.595           0.000            
************.***    ********.**               11.600           0.000            
************.***    ********.**               11.605           0.000            
************.***    ********.**               11.610           0.000            
************.***    ********.**               11.615           0.000            
************.***    ********.**               11.620           0.000            
************.***    ********.**               11.625           0.000            
************.***    ********.**               11.630           0.000            
************.***    ********.**               11.635           0.000            
************.***    ********.**               11.640           0.000            
************.***    ********.**               11.645           0.000            
************.***    ********.**               11.650           0.000            
************.***    ********.**               11.655           0.000            
************.***    ********.**               11.660           0.000            
************.***    ********.**               11.665           0.000            
************.***    ********.**               11.670           0.000            
************.***    ********.**               11.675           0.000            
************.***    ********.**               11.680           0.000            
************.***    ********.**               11.685           0.000            
************.***    ********.**               11.690           0.000            
************.***    ********.**               11.695           0.000            
************.***    ********.**               11.700           0.000            
************.***    ********.**               11.705           0.000            
************.***    ********.**               11.710           0.000            
************.***    ********.**               11.715           0.000            
************.***    ********.**               11.720           0.000            
************.***    ********.**               11.725           0.000            
************.***    ********.**               11.730           0.000            
************.***    ********.**               11.735           0.000            
************.***    ********.**               11.740           0.000            
************.***    ********.**               11.745           0.000            
************.***    ********.**               11.750           0.000            
************.***    ********.**               11.755           0.000            
************.***    ********.**               11.760           0.000            
************.***    ********.**               11.765           0.000            
************.***    ********.**               11.770           0.000            
************.***    ********.**               11.775           2.080            
************.***    ********.**               11.780           4.680            
************.***    ********.**               11.785           0.000            
************.***    ********.**               11.790           7.280            
************.***    ********.**               11.795          14.560            
************.***    ********.**               11.800          17.160            
************.***    ********.**               11.805          29.640            
************.***    ********.**               11.810          29.640            
************.***    ********.**               11.815          39.520            
************.***    ********.**               11.820          47.320            
************.***    ********.**               11.825          62.400            
************.***    ********.**               11.830          74.880            
************.***    ********.**               11.835          87.360            
************.***    ********.**               11.840         112.320            
************.***    ********.**               11.845         130.000            
************.***    ********.**               11.850         160.000            
************.***    ********.**               11.855         168.960            
************.***    ********.**               11.860         186.880            
************.***    ********.**               11.865         212.480            
************.***    ********.**               11.870         226.560            
************.***    ********.**               11.875         244.480            
************.***    ********.**               11.880         257.280            
************.***    ********.**               11.885         273.920            
************.***    ********.**               11.890         284.160            
************.***    ********.**               11.895         291.840            
************.***    ********.**               11.900         304.640            
************.***    ********.**               11.905         307.200            
************.***    ********.**               11.910         314.880            
************.***    ********.**               11.915         320.000            
************.***    ********.**               11.920         317.440            
************.***    ********.**               11.925         327.020            
************.***    ********.**               11.930         327.020            
************.***    ********.**               11.935         333.660            
************.***    ********.**               11.940         338.640            
************.***    ********.**               11.945         341.960            
************.***    ********.**               11.950         346.940            
************.***    ********.**               11.955         351.920            
************.***    ********.**               11.960         353.580            
************.***    ********.**               11.965         361.880            
************.***    ********.**               11.970         371.840            
************.***    ********.**               11.975         368.520            
************.***    ********.**               11.980         381.800            
************.***    ********.**               11.985         393.420            
************.***    ********.**               11.990         396.740            
************.***    ********.**               11.995         415.000            
************.***    ********.**               12.000         431.660            
************.***    ********.**               12.005         438.440            
************.***    ********.**               12.010         438.440            
************.***    ********.**               12.015         458.780            
************.***    ********.**               12.020         465.560            
************.***    ********.**               12.025         472.340            
************.***    ********.**               12.030         490.420            
************.***    ********.**               12.035         497.200            
************.***    ********.**               12.040         508.500            
************.***    ********.**               12.045         519.800            
************.***    ********.**               12.050         531.100            
************.***    ********.**               12.055         537.880            
************.***    ********.**               12.060         546.920            
************.***    ********.**               12.065         558.220            
************.***    ********.**               12.070         565.000            
************.***    ********.**               12.075         579.360            
************.***    ********.**               12.080         576.520            
************.***    ********.**               12.085         593.560            
************.***    ********.**               12.090         604.920            
************.***    ********.**               12.095         604.920            
************.***    ********.**               12.100         613.440            
************.***    ********.**               12.105         624.800            
************.***    ********.**               12.110         641.840            
************.***    ********.**               12.115         644.680            
************.***    ********.**               12.120         656.040            
************.***    ********.**               12.125         670.240            
************.***    ********.**               12.130         678.760            
************.***    ********.**               12.135         687.280            
************.***    ********.**               12.140         701.480            
************.***    ********.**               12.145         710.000            
************.***    ********.**               12.150         729.410            
************.***    ********.**               12.155         736.390            
************.***    ********.**               12.160         746.860            
************.***    ********.**               12.165         757.330            
************.***    ********.**               12.170         767.800            
************.***    ********.**               12.175         781.760            
************.***    ********.**               12.180         788.740            
************.***    ********.**               12.185         806.190            
************.***    ********.**               12.190         820.150            
************.***    ********.**               12.195         827.130            
************.***    ********.**               12.200         841.090            
************.***    ********.**               12.205         844.580            
************.***    ********.**               12.210         855.050            
************.***    ********.**               12.215         862.030            
************.***    ********.**               12.220         872.500            
