File: ul1   18.02.20  02:58:30
Comment: ul1
                    P1Y374-L                                P1Y373-R                                
Time[secs]          Force[N]            Time[secs]          Force[N]            
       0.000         884.000                   0.000         260.000            
       0.005         892.000                   0.005         244.400            
       0.010         904.000                   0.010         231.920            
       0.015         920.000                   0.015         217.360            
       0.020         932.000                   0.020         204.880            
       0.025         936.000                   0.025         196.560            
       0.030         952.000                   0.030         182.000            
       0.035         948.000                   0.035         174.720            
       0.040         960.000                   0.040         162.240            
       0.045         968.000                   0.045         159.120            
       0.050         972.000                   0.050         142.480            
       0.055         976.000                   0.055         134.160            
       0.060         992.000                   0.060         121.680            
       0.065         992.000                   0.065         116.480            
       0.070        1000.000                   0.070         114.400            
       0.075        1003.450                   0.075         110.000            
       0.080        1003.450                   0.080         102.080            
       0.085        1016.260                   0.085          97.240            
       0.090        1024.800                   0.090          92.400            
       0.095        1024.800                   0.095          82.280            
       0.100        1024.800                   0.100          77.440            
       0.105        1033.340                   0.105          74.800            
       0.110        1033.340                   0.110          67.320            
       0.115        1037.610                   0.115          39.600            
       0.120        1041.880                   0.120          37.400            
       0.125        1041.880                   0.125          39.600            
       0.130        1041.880                   0.130          37.400            
       0.135        1050.420                   0.135          39.600            
       0.140        1058.960                   0.140          34.760            
       0.145        1067.500                   0.145          32.120            
       0.150        1084.160                   0.150          40.000            
       0.155        1079.680                   0.155          37.440            
       0.160        1084.160                   0.160          34.880            
       0.165        1093.120                   0.165          37.440            
       0.170        1102.080                   0.170          32.480            
       0.175        1102.080                   0.175          34.880            
       0.180        1102.080                   0.180          34.880            
       0.185        1111.040                   0.185          34.880            
       0.190        1120.000                   0.190          32.480            
       0.195        1115.520                   0.195          32.480            
       0.200        1115.520                   0.200          37.440            
       0.205        1120.000                   0.205          32.480            
       0.210        1106.560                   0.210          37.440            
       0.215        1102.080                   0.215          29.920            
       0.220        1097.600                   0.220          32.480            
       0.225        1100.000                   0.225          37.500            
       0.230        1095.600                   0.230          30.000            
       0.235        1082.400                   0.235          32.400            
       0.240        1082.400                   0.240          37.500            
       0.245        1078.000                   0.245          32.400            
       0.250        1073.600                   0.250          27.450            
       0.255        1069.200                   0.255          30.000            
       0.260        1069.200                   0.260          27.450            
       0.265        1069.200                   0.265          34.950            
       0.270        1069.200                   0.270          30.000            
       0.275        1069.200                   0.275          27.450            
       0.280        1064.800                   0.280          27.450            
       0.285        1064.800                   0.285          27.450            
       0.290        1064.800                   0.290          30.000            
       0.295        1064.800                   0.295          24.900            
       0.300        1074.060                   0.300          35.000            
       0.305        1065.220                   0.305          29.960            
       0.310        1069.640                   0.310          27.440            
       0.315        1069.640                   0.315          29.960            
       0.320        1078.480                   0.320          24.920            
       0.325        1087.320                   0.325          24.920            
       0.330        1087.320                   0.330          27.440            
       0.335        1087.320                   0.335          29.960            
       0.340        1087.320                   0.340          24.920            
       0.345        1091.740                   0.345          29.960            
       0.350        1096.160                   0.350          22.400            
       0.355        1096.160                   0.355          27.440            
       0.360        1096.160                   0.360          27.440            
       0.365        1105.000                   0.365          22.400            
       0.370        1100.580                   0.370          19.880            
       0.375        1106.560                   0.375          30.000            
       0.380        1102.080                   0.380          24.960            
       0.385        1106.560                   0.385          19.920            
       0.390        1106.560                   0.390          22.440            
       0.395        1106.560                   0.395          22.440            
       0.400        1106.560                   0.400          22.440            
       0.405        1106.560                   0.405          24.960            
       0.410        1106.560                   0.410          19.920            
       0.415        1111.040                   0.415          17.400            
       0.420        1106.560                   0.420          22.440            
       0.425        1106.560                   0.425          22.440            
       0.430        1115.520                   0.430          17.400            
       0.435        1111.040                   0.435          22.440            
       0.440        1111.040                   0.440          22.440            
       0.445        1120.000                   0.445          24.960            
       0.450        1117.500                   0.450          27.500            
       0.455        1108.560                   0.455          22.440            
       0.460        1108.560                   0.460          17.490            
       0.465        1104.090                   0.465          17.490            
       0.470        1104.090                   0.470          17.490            
       0.475        1104.090                   0.475          14.960            
       0.480        1099.620                   0.480          14.960            
       0.485        1095.150                   0.485          19.910            
       0.490        1090.680                   0.490          19.910            
       0.495        1086.210                   0.495          19.910            
       0.500        1086.210                   0.500          19.910            
       0.505        1081.740                   0.505          24.970            
       0.510        1081.740                   0.510          17.490            
       0.515        1081.740                   0.515          14.960            
       0.520        1081.740                   0.520          19.910            
       0.525        1087.500                   0.525          27.500            
       0.530        1078.800                   0.530          17.490            
       0.535        1087.500                   0.535          22.440            
       0.540        1083.150                   0.540          17.490            
       0.545        1078.800                   0.545          14.960            
       0.550        1078.800                   0.550          17.490            
       0.555        1078.800                   0.555          14.960            
       0.560        1078.800                   0.560           9.900            
       0.565        1078.800                   0.565          14.960            
       0.570        1078.800                   0.570          12.430            
       0.575        1078.800                   0.575          12.430            
       0.580        1078.800                   0.580          17.490            
       0.585        1078.800                   0.585          14.960            
       0.590        1078.800                   0.590          14.960            
       0.595        1078.800                   0.595          12.430            
       0.600        1095.000                   0.600          20.000            
       0.605        1081.860                   0.605          14.960            
       0.610        1086.240                   0.610          14.960            
       0.615        1086.240                   0.615          12.480            
       0.620        1081.860                   0.620          17.440            
       0.625        1081.860                   0.625          12.480            
       0.630        1081.860                   0.630           7.440            
       0.635        1081.860                   0.635          12.480            
       0.640        1086.240                   0.640           7.440            
       0.645        1081.860                   0.645          10.000            
       0.650        1081.860                   0.650          10.000            
       0.655        1081.860                   0.655          10.000            
       0.660        1086.240                   0.660          10.000            
       0.665        1081.860                   0.665          14.960            
       0.670        1081.860                   0.670           7.440            
       0.675        1087.500                   0.675          17.500            
       0.680        1083.150                   0.680          12.460            
       0.685        1078.800                   0.685           7.490            
       0.690        1074.450                   0.690          14.980            
       0.695        1087.500                   0.695           7.490            
       0.700        1078.800                   0.700           9.940            
       0.705        1078.800                   0.705           9.940            
       0.710        1074.450                   0.710           4.970            
       0.715        1074.450                   0.715          14.980            
       0.720        1078.800                   0.720           2.450            
       0.725        1078.800                   0.725           4.970            
       0.730        1070.100                   0.730           7.490            
       0.735        1078.800                   0.735           7.490            
       0.740        1074.450                   0.740           2.450            
       0.745        1083.150                   0.745           7.490            
       0.750        1090.000                   0.750          12.500            
       0.755        1081.280                   0.755           7.500            
       0.760        1081.280                   0.760           5.000            
       0.765        1081.280                   0.765           0.000            
       0.770        1076.920                   0.770           5.000            
       0.775        1068.200                   0.775           5.000            
       0.780        1068.200                   0.780          10.000            
       0.785        1059.480                   0.785           2.500            
       0.790        1050.760                   0.790           2.500            
       0.795        1046.400                   0.795           0.000            
       0.800        1042.040                   0.800           2.500            
       0.805        1033.320                   0.805           7.500            
       0.810        1028.960                   0.810           0.000            
       0.815        1024.600                   0.815           2.500            
       0.820        1020.240                   0.820           0.000            
       0.825        1022.500                   0.825           5.000            
       0.830        1014.320                   0.830           0.000            
       0.835        1010.230                   0.835           0.000            
       0.840        1006.140                   0.840           0.000            
       0.845        1006.140                   0.845           0.000            
       0.850        1002.050                   0.850           0.000            
       0.855        1002.050                   0.855           2.500            
       0.860         997.960                   0.860           0.000            
       0.865         997.960                   0.865           0.000            
       0.870        1002.050                   0.870           0.000            
       0.875         993.870                   0.875           2.500            
       0.880         997.960                   0.880           0.000            
       0.885        1002.050                   0.885           0.000            
       0.890        1002.050                   0.890           2.500            
       0.895        1002.050                   0.895           0.000            
       0.900        1009.360                   0.900           5.000            
       0.905         997.150                   0.905           0.000            
       0.910        1001.220                   0.910           0.000            
       0.915        1005.290                   0.915           0.000            
       0.920        1005.290                   0.920           0.000            
       0.925         997.150                   0.925           0.000            
       0.930        1001.220                   0.930           0.000            
       0.935        1001.220                   0.935           0.000            
       0.940        1001.220                   0.940           0.000            
       0.945        1005.290                   0.945           0.000            
       0.950        1009.360                   0.950           0.000            
       0.955        1009.360                   0.955           0.000            
       0.960        1013.430                   0.960           0.000            
       0.965        1009.360                   0.965           0.000            
       0.970        1017.500                   0.970           0.000            
       0.975        1015.980                   0.975           5.000            
       0.980        1011.850                   0.980           0.000            
       0.985        1015.980                   0.985           5.000            
       0.990        1015.980                   0.990           0.000            
       0.995        1015.980                   0.995           0.000            
       1.000        1015.980                   1.000           0.000            
       1.005        1024.240                   1.005           0.000            
       1.010        1015.980                   1.010           0.000            
       1.015        1015.980                   1.015          10.000            
       1.020        1024.240                   1.020           0.000            
       1.025        1024.240                   1.025           0.000            
       1.030        1024.240                   1.030           0.000            
       1.035        1028.370                   1.035           0.000            
       1.040        1032.500                   1.040           0.000            
       1.045        1024.240                   1.045           0.000            
       1.050        1036.800                   1.050           2.500            
       1.055        1032.480                   1.055           0.000            
       1.060        1032.480                   1.060           0.000            
       1.065        1036.800                   1.065           0.000            
       1.070        1041.120                   1.070           0.000            
       1.075        1045.440                   1.075           0.000            
       1.080        1049.760                   1.080           0.000            
       1.085        1058.400                   1.085           0.000            
       1.090        1062.720                   1.090           0.000            
       1.095        1067.040                   1.095           0.000            
       1.100        1071.360                   1.100           0.000            
       1.105        1071.360                   1.105           0.000            
       1.110        1080.000                   1.110           2.500            
       1.115        1080.000                   1.115           0.000            
       1.120        1080.000                   1.120           0.000            
       1.125        1097.500                   1.125           0.000            
       1.130        1084.330                   1.130           0.000            
       1.135        1088.720                   1.135           0.000            
       1.140        1088.720                   1.140           0.000            
       1.145        1088.720                   1.145           0.000            
       1.150        1088.720                   1.150           0.000            
       1.155        1088.720                   1.155           0.000            
       1.160        1088.720                   1.160           0.000            
       1.165        1088.720                   1.165           0.000            
       1.170        1088.720                   1.170           2.500            
       1.175        1084.330                   1.175           0.000            
       1.180        1084.330                   1.180           0.000            
       1.185        1084.330                   1.185           0.000            
       1.190        1084.330                   1.190           0.000            
       1.195        1084.330                   1.195           0.000            
       1.200        1092.500                   1.200           0.000            
       1.205        1079.390                   1.205           0.000            
       1.210        1079.390                   1.210           0.000            
       1.215        1075.020                   1.215           0.000            
       1.220        1075.020                   1.220           0.000            
       1.225        1075.020                   1.225           0.000            
       1.230        1066.280                   1.230           0.000            
       1.235        1066.280                   1.235           0.000            
       1.240        1066.280                   1.240           0.000            
       1.245        1057.540                   1.245           0.000            
       1.250        1061.910                   1.250           0.000            
       1.255        1061.910                   1.255           0.000            
       1.260        1061.910                   1.260           0.000            
       1.265        1053.170                   1.265           0.000            
       1.270        1048.800                   1.270           0.000            
       1.275        1060.000                   1.275           0.000            
       1.280        1051.520                   1.280           0.000            
       1.285        1038.800                   1.285           0.000            
       1.290        1038.800                   1.290           0.000            
       1.295        1038.800                   1.295           0.000            
       1.300        1043.040                   1.300           0.000            
       1.305        1038.800                   1.305           0.000            
       1.310        1034.560                   1.310           0.000            
       1.315        1034.560                   1.315           0.000            
       1.320        1034.560                   1.320           0.000            
       1.325        1034.560                   1.325           0.000            
       1.330        1034.560                   1.330           0.000            
       1.335        1038.800                   1.335           0.000            
       1.340        1034.560                   1.340           0.000            
       1.345        1034.560                   1.345           0.000            
       1.350        1040.820                   1.350           0.000            
       1.355        1036.640                   1.355           0.000            
       1.360        1040.820                   1.360           0.000            
       1.365        1040.820                   1.365           0.000            
       1.370        1045.000                   1.370           0.000            
       1.375        1036.640                   1.375           0.000            
       1.380        1040.820                   1.380           0.000            
       1.385        1040.820                   1.385           0.000            
       1.390        1036.640                   1.390           0.000            
       1.395        1040.820                   1.395           0.000            
       1.400        1040.820                   1.400           0.000            
       1.405        1036.640                   1.405           0.000            
       1.410        1036.640                   1.410           0.000            
       1.415        1032.460                   1.415           0.000            
       1.420        1032.460                   1.420           0.000            
       1.425        1038.400                   1.425           0.000            
       1.430        1029.600                   1.430           0.000            
       1.435        1038.400                   1.435           0.000            
       1.440        1020.800                   1.440           0.000            
       1.445        1016.400                   1.445           0.000            
       1.450        1012.000                   1.450           0.000            
       1.455        1016.400                   1.455           0.000            
       1.460        1012.000                   1.460           0.000            
       1.465        1016.400                   1.465           0.000            
       1.470        1034.000                   1.470           0.000            
       1.475        1047.200                   1.475           0.000            
       1.480        1056.000                   1.480           0.000            
       1.485        1073.600                   1.485           0.000            
       1.490        1086.800                   1.490           0.000            
       1.495        1100.000                   1.495           0.000            
       1.500        1110.540                   1.500           0.000            
       1.505        1101.620                   1.505           0.000            
       1.510        1110.540                   1.510           0.000            
       1.515        1106.080                   1.515           0.000            
       1.520        1115.000                   1.520           0.000            
       1.525        1110.540                   1.525           0.000            
       1.530        1115.000                   1.530           0.000            
       1.535        1110.540                   1.535           0.000            
       1.540        1101.620                   1.540           0.000            
       1.545        1101.620                   1.545           0.000            
       1.550        1101.620                   1.550           0.000            
       1.555        1101.620                   1.555           0.000            
       1.560        1088.240                   1.560           0.000            
       1.565        1088.240                   1.565           0.000            
       1.570        1088.240                   1.570           0.000            
       1.575        1095.000                   1.575           0.000            
       1.580        1081.860                   1.580           0.000            
       1.585        1081.860                   1.585           0.000            
       1.590        1077.480                   1.590           0.000            
       1.595        1086.240                   1.595           0.000            
       1.600        1081.860                   1.600           0.000            
       1.605        1081.860                   1.605           0.000            
       1.610        1077.480                   1.610           0.000            
       1.615        1081.860                   1.615           0.000            
       1.620        1086.240                   1.620           0.000            
       1.625        1081.860                   1.625           0.000            
       1.630        1081.860                   1.630           0.000            
       1.635        1086.240                   1.635           0.000            
       1.640        1081.860                   1.640           0.000            
       1.645        1086.240                   1.645           0.000            
       1.650        1087.500                   1.650           0.000            
       1.655        1078.800                   1.655           0.000            
       1.660        1078.800                   1.660           0.000            
       1.665        1078.800                   1.665           0.000            
       1.670        1074.450                   1.670           0.000            
       1.675        1074.450                   1.675           0.000            
       1.680        1087.500                   1.680           0.000            
       1.685        1074.450                   1.685           0.000            
       1.690        1070.100                   1.690           0.000            
       1.695        1065.750                   1.695           0.000            
       1.700        1065.750                   1.700           0.000            
       1.705        1061.400                   1.705           0.000            
       1.710        1061.400                   1.710           0.000            
       1.715        1061.400                   1.715           0.000            
       1.720        1057.050                   1.720           0.000            
       1.725        1062.500                   1.725           0.000            
       1.730        1049.750                   1.730           0.000            
       1.735        1054.000                   1.735           0.000            
       1.740        1049.750                   1.740           0.000            
       1.745        1054.000                   1.745           0.000            
       1.750        1049.750                   1.750           0.000            
       1.755        1054.000                   1.755           0.000            
       1.760        1049.750                   1.760           0.000            
       1.765        1054.000                   1.765           0.000            
       1.770        1054.000                   1.770           0.000            
       1.775        1054.000                   1.775           0.000            
       1.780        1049.750                   1.780           0.000            
       1.785        1054.000                   1.785           0.000            
       1.790        1049.750                   1.790           0.000            
       1.795        1054.000                   1.795           0.000            
       1.800        1062.500                   1.800           0.000            
       1.805        1054.000                   1.805           0.000            
       1.810        1054.000                   1.810           0.000            
       1.815        1054.000                   1.815           0.000            
       1.820        1054.000                   1.820           0.000            
       1.825        1054.000                   1.825           0.000            
       1.830        1062.500                   1.830           0.000            
       1.835        1049.750                   1.835           0.000            
       1.840        1054.000                   1.840           0.000            
       1.845        1054.000                   1.845           0.000            
       1.850        1049.750                   1.850           0.000            
       1.855        1054.000                   1.855           0.000            
       1.860        1045.500                   1.860           0.000            
       1.865        1041.250                   1.865           0.000            
       1.870        1041.250                   1.870           0.000            
       1.875        1048.600                   1.875           0.000            
       1.880        1048.600                   1.880           0.000            
       1.885        1048.600                   1.885           0.000            
       1.890        1052.880                   1.890           0.000            
       1.895        1048.600                   1.895           0.000            
       1.900        1048.600                   1.900           0.000            
       1.905        1052.880                   1.905           0.000            
       1.910        1061.440                   1.910           0.000            
       1.915        1057.160                   1.915           0.000            
       1.920        1061.440                   1.920           0.000            
       1.925        1065.720                   1.925           0.000            
       1.930        1065.720                   1.930           0.000            
       1.935        1070.000                   1.935           0.000            
       1.940        1061.440                   1.940           0.000            
       1.945        1070.000                   1.945           0.000            
       1.950        1075.000                   1.950           0.000            
       1.955        1075.000                   1.955           0.000            
       1.960        1066.400                   1.960           0.000            
       1.965        1066.400                   1.965           0.000            
       1.970        1066.400                   1.970           0.000            
       1.975        1070.700                   1.975           0.000            
       1.980        1066.400                   1.980           0.000            
       1.985        1070.700                   1.985           0.000            
       1.990        1066.400                   1.990           0.000            
       1.995        1066.400                   1.995           0.000            
       2.000        1062.100                   2.000           0.000            
       2.005        1066.400                   2.005           0.000            
       2.010        1062.100                   2.010           0.000            
       2.015        1062.100                   2.015           0.000            
       2.020        1062.100                   2.020           0.000            
       2.025        1065.000                   2.025           0.000            
       2.030        1060.740                   2.030           0.000            
       2.035        1060.740                   2.035           0.000            
       2.040        1056.480                   2.040           0.000            
       2.045        1056.480                   2.045           0.000            
       2.050        1056.480                   2.050           0.000            
       2.055        1056.480                   2.055           0.000            
       2.060        1043.700                   2.060           0.000            
       2.065        1047.960                   2.065           0.000            
       2.070        1035.180                   2.070           0.000            
       2.075        1026.660                   2.075           0.000            
       2.080        1018.140                   2.080           0.000            
       2.085        1013.880                   2.085           0.000            
       2.090        1018.140                   2.090           0.000            
       2.095        1026.660                   2.095           0.000            
       2.100        1043.120                   2.100           0.000            
       2.105        1038.700                   2.105           0.000            
       2.110        1051.960                   2.110           0.000            
       2.115        1060.800                   2.115           0.000            
       2.120        1074.060                   2.120           0.000            
       2.125        1082.900                   2.125           0.000            
       2.130        1082.900                   2.130           0.000            
       2.135        1087.320                   2.135           0.000            
       2.140        1091.740                   2.140           0.000            
       2.145        1096.160                   2.145           0.000            
       2.150        1105.000                   2.150           0.000            
       2.155        1105.000                   2.155           0.000            
       2.160        1100.580                   2.160           0.000            
       2.165        1100.580                   2.165           0.000            
       2.170        1105.000                   2.170           0.000            
       2.175        1117.500                   2.175           0.000            
       2.180        1108.560                   2.180           0.000            
       2.185        1108.560                   2.185           0.000            
       2.190        1108.560                   2.190           0.000            
       2.195        1104.090                   2.195           0.000            
       2.200        1104.090                   2.200           0.000            
       2.205        1108.560                   2.205           0.000            
       2.210        1104.090                   2.210           0.000            
       2.215        1104.090                   2.215           0.000            
       2.220        1104.090                   2.220           0.000            
       2.225        1099.620                   2.225           0.000            
       2.230        1099.620                   2.230           0.000            
       2.235        1104.090                   2.235           0.000            
       2.240        1099.620                   2.240           0.000            
       2.245        1099.620                   2.245           0.000            
       2.250        1105.000                   2.250           0.000            
       2.255        1096.160                   2.255           0.000            
       2.260        1091.740                   2.260           0.000            
       2.265        1091.740                   2.265           0.000            
       2.270        1091.740                   2.270           0.000            
       2.275        1091.740                   2.275           0.000            
       2.280        1091.740                   2.280           0.000            
       2.285        1091.740                   2.285           0.000            
       2.290        1087.320                   2.290           0.000            
       2.295        1087.320                   2.295           0.000            
       2.300        1087.320                   2.300           0.000            
       2.305        1087.320                   2.305           0.000            
       2.310        1078.480                   2.310           0.000            
       2.315        1074.060                   2.315           0.000            
       2.320        1074.060                   2.320           0.000            
       2.325        1082.500                   2.325           0.000            
       2.330        1065.180                   2.330           0.000            
       2.335        1069.510                   2.335           0.000            
       2.340        1056.520                   2.340           0.000            
       2.345        1060.850                   2.345           0.000            
       2.350        1060.850                   2.350           0.000            
       2.355        1060.850                   2.355           0.000            
       2.360        1069.510                   2.360           0.000            
       2.365        1065.180                   2.365           0.000            
       2.370        1069.510                   2.370           0.000            
       2.375        1069.510                   2.375           0.000            
       2.380        1065.180                   2.380           0.000            
       2.385        1065.180                   2.385           0.000            
       2.390        1069.510                   2.390           0.000            
       2.395        1069.510                   2.395           0.000            
       2.400        1078.000                   2.400           0.000            
       2.405        1069.200                   2.405           0.000            
       2.410        1078.000                   2.410           0.000            
       2.415        1078.000                   2.415           0.000            
       2.420        1082.400                   2.420           0.000            
       2.425        1082.400                   2.425           0.000            
       2.430        1082.400                   2.430           0.000            
       2.435        1082.400                   2.435           0.000            
       2.440        1091.200                   2.440           0.000            
       2.445        1086.800                   2.445           0.000            
       2.450        1095.600                   2.450           0.000            
       2.455        1100.000                   2.455           0.000            
       2.460        1100.000                   2.460           0.000            
       2.465        1100.000                   2.465           0.000            
       2.470        1100.000                   2.470           0.000            
       2.475        1113.030                   2.475           0.000            
       2.480        1104.090                   2.480           0.000            
       2.485        1108.560                   2.485           0.000            
       2.490        1113.030                   2.490           0.000            
       2.495        1108.560                   2.495           0.000            
       2.500        1117.500                   2.500           0.000            
       2.505        1108.560                   2.505           0.000            
       2.510        1113.030                   2.510           0.000            
       2.515        1108.560                   2.515           0.000            
       2.520        1108.560                   2.520           0.000            
       2.525        1104.090                   2.525           0.000            
       2.530        1108.560                   2.530           0.000            
       2.535        1104.090                   2.535           0.000            
       2.540        1104.090                   2.540           0.000            
       2.545        1099.620                   2.545           0.000            
       2.550        1110.000                   2.550           0.000            
       2.555        1096.680                   2.555           0.000            
       2.560        1101.120                   2.560           0.000            
       2.565        1092.240                   2.565           0.000            
       2.570        1096.680                   2.570           0.000            
       2.575        1101.120                   2.575           0.000            
       2.580        1101.120                   2.580           0.000            
       2.585        1096.680                   2.585           0.000            
       2.590        1092.240                   2.590           0.000            
       2.595        1092.240                   2.595           0.000            
       2.600        1092.240                   2.600           0.000            
       2.605        1092.240                   2.605           0.000            
       2.610        1096.680                   2.610           0.000            
       2.615        1096.680                   2.615           0.000            
       2.620        1092.240                   2.620           0.000            
       2.625        1097.500                   2.625           0.000            
       2.630        1084.330                   2.630           0.000            
       2.635        1088.720                   2.635           0.000            
       2.640        1084.330                   2.640           0.000            
       2.645        1079.940                   2.645           0.000            
       2.650        1079.940                   2.650           0.000            
       2.655        1079.940                   2.655           0.000            
       2.660        1079.940                   2.660           0.000            
       2.665        1088.720                   2.665           0.000            
       2.670        1079.940                   2.670           0.000            
       2.675        1084.330                   2.675           0.000            
       2.680        1079.940                   2.680           0.000            
       2.685        1071.160                   2.685           0.000            
       2.690        1079.940                   2.690           0.000            
       2.695        1079.940                   2.695           0.000            
       2.700        1085.000                   2.700           0.000            
       2.705        1080.660                   2.705           0.000            
       2.710        1076.320                   2.710           0.000            
       2.715        1080.660                   2.715           0.000            
       2.720        1076.320                   2.720           0.000            
       2.725        1080.660                   2.725           0.000            
       2.730        1076.320                   2.730           0.000            
       2.735        1076.320                   2.735           0.000            
       2.740        1076.320                   2.740           0.000            
       2.745        1076.320                   2.745           0.000            
       2.750        1076.320                   2.750           0.000            
       2.755        1076.320                   2.755           0.000            
       2.760        1080.660                   2.760           0.000            
       2.765        1080.660                   2.765           0.000            
       2.770        1080.660                   2.770           0.000            
       2.775        1081.280                   2.775           0.000            
       2.780        1081.280                   2.780           0.000            
       2.785        1076.920                   2.785           0.000            
       2.790        1076.920                   2.790           0.000            
       2.795        1076.920                   2.795           0.000            
       2.800        1081.280                   2.800           0.000            
       2.805        1090.000                   2.805           0.000            
       2.810        1081.280                   2.810           0.000            
       2.815        1076.920                   2.815           0.000            
       2.820        1081.280                   2.820           0.000            
       2.825        1081.280                   2.825           0.000            
       2.830        1081.280                   2.830           0.000            
       2.835        1081.280                   2.835           0.000            
       2.840        1081.280                   2.840           0.000            
       2.845        1081.280                   2.845           0.000            
       2.850        1090.000                   2.850           0.000            
       2.855        1090.000                   2.855           0.000            
       2.860        1085.640                   2.860           0.000            
       2.865        1085.640                   2.865           0.000            
       2.870        1076.920                   2.870           0.000            
       2.875        1081.280                   2.875           0.000            
       2.880        1081.280                   2.880           0.000            
       2.885        1090.000                   2.885           0.000            
       2.890        1081.280                   2.890           0.000            
       2.895        1072.560                   2.895           0.000            
       2.900        1076.920                   2.900           0.000            
       2.905        1076.920                   2.905           0.000            
       2.910        1076.920                   2.910           0.000            
       2.915        1068.200                   2.915           0.000            
       2.920        1068.200                   2.920           0.000            
       2.925        1080.000                   2.925           0.000            
       2.930        1067.040                   2.930           0.000            
       2.935        1058.400                   2.935           0.000            
       2.940        1062.720                   2.940           0.000            
       2.945        1054.080                   2.945           0.000            
       2.950        1054.080                   2.950           0.000            
       2.955        1054.080                   2.955           0.000            
       2.960        1049.760                   2.960           0.000            
       2.965        1049.760                   2.965           0.000            
       2.970        1049.760                   2.970           0.000            
       2.975        1049.760                   2.975           0.000            
       2.980        1036.800                   2.980           0.000            
       2.985        1036.800                   2.985           0.000            
       2.990        1032.480                   2.990           0.000            
       2.995        1032.480                   2.995           0.000            
       3.000        1043.840                   3.000           0.000            
       3.005        1048.320                   3.005           0.000            
       3.010        1061.760                   3.010           0.000            
       3.015        1070.720                   3.015           0.000            
       3.020        1079.680                   3.020           0.000            
       3.025        1084.160                   3.025           0.000            
       3.030        1088.640                   3.030           0.000            
       3.035        1093.120                   3.035           0.000            
       3.040        1102.080                   3.040           0.000            
       3.045        1106.560                   3.045           0.000            
       3.050        1106.560                   3.050           0.000            
       3.055        1106.560                   3.055           0.000            
       3.060        1111.040                   3.060           0.000            
       3.065        1115.520                   3.065           0.000            
       3.070        1120.000                   3.070           0.000            
       3.075        1127.720                   3.075           0.000            
       3.080        1127.720                   3.080           0.000            
       3.085        1123.060                   3.085           0.000            
       3.090        1127.720                   3.090           0.000            
       3.095        1132.380                   3.095           0.000            
       3.100        1127.720                   3.100           0.000            
       3.105        1137.040                   3.105           0.000            
       3.110        1141.700                   3.110           0.000            
       3.115        1146.360                   3.115           0.000            
       3.120        1146.360                   3.120           0.000            
       3.125        1151.020                   3.125           0.000            
       3.130        1151.020                   3.130           0.000            
       3.135        1151.020                   3.135           0.000            
       3.140        1151.020                   3.140           0.000            
       3.145        1165.000                   3.145           0.000            
       3.150        1162.500                   3.150           0.000            
       3.155        1162.500                   3.155           0.000            
       3.160        1153.200                   3.160           0.000            
       3.165        1153.200                   3.165           0.000            
       3.170        1153.200                   3.170           0.000            
       3.175        1153.200                   3.175           0.000            
       3.180        1153.200                   3.180           0.000            
       3.185        1148.550                   3.185           0.000            
       3.190        1139.250                   3.190           0.000            
       3.195        1139.250                   3.195           0.000            
       3.200        1134.600                   3.200           0.000            
       3.205        1129.950                   3.205           0.000            
       3.210        1120.650                   3.210           0.000            
       3.215        1120.650                   3.215           0.000            
       3.220        1116.000                   3.220           0.000            
       3.225        1125.000                   3.225           0.000            
       3.230        1111.500                   3.230           0.000            
       3.235        1107.000                   3.235           0.000            
       3.240        1107.000                   3.240           0.000            
       3.245        1102.500                   3.245           0.000            
       3.250        1102.500                   3.250           0.000            
       3.255        1102.500                   3.255           0.000            
       3.260        1093.500                   3.260           0.000            
       3.265        1093.500                   3.265           0.000            
       3.270        1093.500                   3.270           0.000            
       3.275        1093.500                   3.275           0.000            
       3.280        1093.500                   3.280           0.000            
       3.285        1093.500                   3.285           0.000            
       3.290        1093.500                   3.290           0.000            
       3.295        1093.500                   3.295           0.000            
       3.300        1107.500                   3.300           0.000            
       3.305        1094.210                   3.305           0.000            
       3.310        1094.210                   3.310           0.000            
       3.315        1098.640                   3.315           0.000            
       3.320        1094.210                   3.320           0.000            
       3.325        1094.210                   3.325           0.000            
       3.330        1103.070                   3.330           0.000            
       3.335        1094.210                   3.335           0.000            
       3.340        1094.210                   3.340           0.000            
       3.345        1094.210                   3.345           0.000            
       3.350        1094.210                   3.350           0.000            
       3.355        1094.210                   3.355           0.000            
       3.360        1098.640                   3.360           0.000            
       3.365        1085.350                   3.365           0.000            
       3.370        1089.780                   3.370           0.000            
       3.375        1090.000                   3.375           0.000            
       3.380        1085.640                   3.380           0.000            
       3.385        1081.280                   3.385           0.000            
       3.390        1081.280                   3.390           0.000            
       3.395        1076.920                   3.395           0.000            
       3.400        1076.920                   3.400           0.000            
       3.405        1076.920                   3.405           0.000            
       3.410        1072.560                   3.410           0.000            
       3.415        1072.560                   3.415           0.000            
       3.420        1076.920                   3.420           0.000            
       3.425        1072.560                   3.425           0.000            
       3.430        1068.200                   3.430           0.000            
       3.435        1063.840                   3.435           0.000            
       3.440        1063.840                   3.440           0.000            
       3.445        1068.200                   3.445           0.000            
       3.450        1070.000                   3.450           0.000            
       3.455        1061.440                   3.455           0.000            
       3.460        1057.160                   3.460           0.000            
       3.465        1061.440                   3.465           0.000            
       3.470        1057.160                   3.470           0.000            
       3.475        1057.160                   3.475           0.000            
       3.480        1061.440                   3.480           0.000            
       3.485        1057.160                   3.485           0.000            
       3.490        1057.160                   3.490           0.000            
       3.495        1061.440                   3.495           0.000            
       3.500        1057.160                   3.500           0.000            
       3.505        1061.440                   3.505           0.000            
       3.510        1061.440                   3.510           0.000            
       3.515        1061.440                   3.515           0.000            
       3.520        1061.440                   3.520           0.000            
       3.525        1070.000                   3.525           0.000            
       3.530        1061.440                   3.530           0.000            
       3.535        1057.160                   3.535           0.000            
       3.540        1057.160                   3.540           0.000            
       3.545        1057.160                   3.545           0.000            
       3.550        1057.160                   3.550           0.000            
       3.555        1061.440                   3.555           0.000            
       3.560        1065.720                   3.560           0.000            
       3.565        1057.160                   3.565           0.000            
       3.570        1065.720                   3.570           0.000            
       3.575        1061.440                   3.575           0.000            
       3.580        1061.440                   3.580           0.000            
       3.585        1061.440                   3.585           0.000            
       3.590        1061.440                   3.590           0.000            
       3.595        1061.440                   3.595           0.000            
       3.600        1072.500                   3.600           0.000            
       3.605        1055.340                   3.605           0.000            
       3.610        1055.340                   3.610           0.000            
       3.615        1063.920                   3.615           0.000            
       3.620        1063.920                   3.620           0.000            
       3.625        1063.920                   3.625           0.000            
       3.630        1063.920                   3.630           0.000            
       3.635        1072.500                   3.635           0.000            
       3.640        1063.920                   3.640           0.000            
       3.645        1063.920                   3.645           0.000            
       3.650        1068.210                   3.650           0.000            
       3.655        1068.210                   3.655           0.000            
       3.660        1068.210                   3.660           0.000            
       3.665        1068.210                   3.665           0.000            
       3.670        1068.210                   3.670           0.000            
       3.675        1065.750                   3.675           0.000            
       3.680        1070.100                   3.680           0.000            
       3.685        1070.100                   3.685           0.000            
       3.690        1070.100                   3.690           0.000            
       3.695        1074.450                   3.695           0.000            
       3.700        1074.450                   3.700           0.000            
       3.705        1070.100                   3.705           0.000            
       3.710        1074.450                   3.710           0.000            
       3.715        1070.100                   3.715           0.000            
       3.720        1074.450                   3.720           0.000            
       3.725        1078.800                   3.725           0.000            
       3.730        1074.450                   3.730           0.000            
       3.735        1087.500                   3.735           0.000            
       3.740        1078.800                   3.740           0.000            
       3.745        1083.150                   3.745           0.000            
       3.750        1083.150                   3.750           0.000            
       3.755        1078.800                   3.755           0.000            
       3.760        1074.450                   3.760           0.000            
       3.765        1078.800                   3.765           0.000            
       3.770        1087.500                   3.770           0.000            
       3.775        1074.450                   3.775           0.000            
       3.780        1074.450                   3.780           0.000            
       3.785        1074.450                   3.785           0.000            
       3.790        1074.450                   3.790           0.000            
       3.795        1074.450                   3.795           0.000            
       3.800        1078.800                   3.800           0.000            
       3.805        1074.450                   3.805           0.000            
       3.810        1074.450                   3.810           0.000            
       3.815        1065.750                   3.815           0.000            
       3.820        1065.750                   3.820           0.000            
       3.825        1066.400                   3.825           0.000            
       3.830        1062.100                   3.830           0.000            
       3.835        1066.400                   3.835           0.000            
       3.840        1075.000                   3.840           0.000            
       3.845        1062.100                   3.845           0.000            
       3.850        1066.400                   3.850           0.000            
       3.855        1062.100                   3.855           0.000            
       3.860        1062.100                   3.860           0.000            
       3.865        1066.400                   3.865           0.000            
       3.870        1062.100                   3.870           0.000            
       3.875        1066.400                   3.875           0.000            
       3.880        1062.100                   3.880           0.000            
       3.885        1057.800                   3.885           0.000            
       3.890        1062.100                   3.890           0.000            
       3.895        1062.100                   3.895           0.000            
       3.900        1060.740                   3.900           0.000            
       3.905        1060.740                   3.905           0.000            
       3.910        1056.480                   3.910           0.000            
       3.915        1060.740                   3.915           0.000            
       3.920        1065.000                   3.920           0.000            
       3.925        1065.000                   3.925           0.000            
       3.930        1065.000                   3.930           0.000            
       3.935        1052.220                   3.935           0.000            
       3.940        1065.000                   3.940           0.000            
       3.945        1065.000                   3.945           0.000            
       3.950        1056.480                   3.950           0.000            
       3.955        1060.740                   3.955           0.000            
       3.960        1065.000                   3.960           0.000            
       3.965        1060.740                   3.965           0.000            
       3.970        1060.740                   3.970           0.000            
       3.975        1069.510                   3.975           0.000            
       3.980        1060.850                   3.980           0.000            
       3.985        1065.180                   3.985           0.000            
       3.990        1069.510                   3.990           0.000            
       3.995        1073.840                   3.995           0.000            
       4.000        1069.510                   4.000           0.000            
       4.005        1082.500                   4.005           0.000            
       4.010        1078.170                   4.010           0.000            
       4.015        1082.500                   4.015           0.000            
       4.020        1082.500                   4.020           0.000            
       4.025        1082.500                   4.025           0.000            
       4.030        1082.500                   4.030           0.000            
       4.035        1073.840                   4.035           0.000            
       4.040        1069.510                   4.040           0.000            
       4.045        1065.180                   4.045           0.000            
       4.050        1072.500                   4.050           0.000            
       4.055        1059.630                   4.055           0.000            
       4.060        1059.630                   4.060           0.000            
       4.065        1055.340                   4.065           0.000            
       4.070        1055.340                   4.070           0.000            
       4.075        1051.050                   4.075           0.000            
       4.080        1042.470                   4.080           0.000            
       4.085        1042.470                   4.085           0.000            
       4.090        1046.760                   4.090           0.000            
       4.095        1046.760                   4.095           0.000            
       4.100        1046.760                   4.100           0.000            
       4.105        1051.050                   4.105           0.000            
       4.110        1046.760                   4.110           0.000            
       4.115        1046.760                   4.115           0.000            
       4.120        1051.050                   4.120           0.000            
       4.125        1059.390                   4.125           0.000            
       4.130        1050.450                   4.130           0.000            
       4.135        1045.980                   4.135           0.000            
       4.140        1054.920                   4.140           0.000            
       4.145        1059.390                   4.145           0.000            
       4.150        1059.390                   4.150           0.000            
       4.155        1059.390                   4.155           0.000            
       4.160        1063.860                   4.160           0.000            
       4.165        1077.270                   4.165           0.000            
       4.170        1077.270                   4.170           0.000            
       4.175        1081.740                   4.175           0.000            
       4.180        1086.210                   4.180           0.000            
       4.185        1095.150                   4.185           0.000            
       4.190        1104.090                   4.190           0.000            
       4.195        1117.500                   4.195           0.000            
       4.200        1129.720                   4.200           0.000            
       4.205        1120.460                   4.205           0.000            
       4.210        1129.720                   4.210           0.000            
       4.215        1134.350                   4.215           0.000            
       4.220        1138.980                   4.220           0.000            
       4.225        1143.610                   4.225           0.000            
       4.230        1143.610                   4.230           0.000            
       4.235        1152.870                   4.235           0.000            
       4.240        1152.870                   4.240           0.000            
       4.245        1157.500                   4.245           0.000            
       4.250        1148.240                   4.250           0.000            
       4.255        1152.870                   4.255           0.000            
       4.260        1148.240                   4.260           0.000            
       4.265        1157.500                   4.265           0.000            
       4.270        1148.240                   4.270           0.000            
       4.275        1157.500                   4.275           0.000            
       4.280        1148.240                   4.280           0.000            
       4.285        1148.240                   4.285           0.000            
       4.290        1138.980                   4.290           0.000            
       4.295        1143.610                   4.295           0.000            
       4.300        1143.610                   4.300           0.000            
       4.305        1143.610                   4.305           0.000            
       4.310        1143.610                   4.310           0.000            
       4.315        1143.610                   4.315           0.000            
       4.320        1148.240                   4.320           0.000            
       4.325        1148.240                   4.325           0.000            
       4.330        1148.240                   4.330           0.000            
       4.335        1143.610                   4.335           0.000            
       4.340        1148.240                   4.340           0.000            
       4.345        1148.240                   4.345           0.000            
       4.350        1156.760                   4.350           0.000            
       4.355        1151.980                   4.355           0.000            
       4.360        1156.760                   4.360           0.000            
       4.365        1161.540                   4.365           0.000            
       4.370        1166.320                   4.370           0.000            
       4.375        1171.100                   4.375           0.000            
       4.380        1175.880                   4.380           0.000            
       4.385        1180.660                   4.385           0.000            
       4.390        1180.660                   4.390           0.000            
       4.395        1185.440                   4.395           0.000            
       4.400        1185.440                   4.400           0.000            
       4.405        1190.220                   4.405           0.000            
       4.410        1190.220                   4.410           0.000            
       4.415        1195.000                   4.415           0.000            
       4.420        1180.660                   4.420           0.000            
       4.425        1192.500                   4.425           0.000            
       4.430        1182.960                   4.430           0.000            
       4.435        1187.730                   4.435           0.000            
       4.440        1178.190                   4.440           0.000            
       4.445        1178.190                   4.445           0.000            
       4.450        1173.420                   4.450           0.000            
       4.455        1163.880                   4.455           0.000            
       4.460        1168.650                   4.460           0.000            
       4.465        1168.650                   4.465           0.000            
       4.470        1168.650                   4.470           0.000            
       4.475        1159.110                   4.475           0.000            
       4.480        1154.340                   4.480           0.000            
       4.485        1149.570                   4.485           0.000            
       4.490        1144.800                   4.490           0.000            
       4.495        1140.030                   4.495           0.000            
       4.500        1145.000                   4.500           0.000            
       4.505        1126.680                   4.505           0.000            
       4.510        1131.260                   4.510           0.000            
       4.515        1117.520                   4.515           0.000            
       4.520        1117.520                   4.520           0.000            
       4.525        1112.940                   4.525           0.000            
       4.530        1103.780                   4.530           0.000            
       4.535        1094.620                   4.535           0.000            
       4.540        1090.040                   4.540           0.000            
       4.545        1080.880                   4.545           0.000            
       4.550        1076.300                   4.550           0.000            
       4.555        1076.300                   4.555           0.000            
       4.560        1067.140                   4.560           0.000            
       4.565        1048.820                   4.565           0.000            
       4.570        1048.820                   4.570           0.000            
       4.575        1050.000                   4.575           0.000            
       4.580        1029.000                   4.580           0.000            
       4.585        1024.800                   4.585           0.000            
       4.590        1020.600                   4.590           0.000            
       4.595        1012.200                   4.595           0.000            
       4.600        1003.800                   4.600           0.000            
       4.605         999.600                   4.605           0.000            
       4.610         995.400                   4.610           0.000            
       4.615        1003.800                   4.615           0.000            
       4.620         999.600                   4.620           0.000            
       4.625        1003.800                   4.625           0.000            
       4.630        1012.200                   4.630           0.000            
       4.635        1024.800                   4.635           0.000            
       4.640        1033.200                   4.640           0.000            
       4.645        1037.400                   4.645           0.000            
       4.650        1048.800                   4.650           0.000            
       4.655        1048.800                   4.655           0.000            
       4.660        1053.360                   4.660           0.000            
       4.665        1067.040                   4.665           0.000            
       4.670        1076.160                   4.670           0.000            
       4.675        1089.840                   4.675           0.000            
       4.680        1094.400                   4.680           0.000            
       4.685        1098.960                   4.685           0.000            
       4.690        1108.080                   4.690           0.000            
       4.695        1103.520                   4.695           0.000            
       4.700        1117.200                   4.700           0.000            
       4.705        1121.760                   4.705           0.000            
       4.710        1126.320                   4.710           0.000            
       4.715        1130.880                   4.715           0.000            
       4.720        1140.000                   4.720           0.000            
       4.725        1151.360                   4.725           0.000            
       4.730        1151.360                   4.730           0.000            
       4.735        1156.500                   4.735           0.000            
       4.740        1171.920                   4.740           0.000            
       4.745        1177.060                   4.745           0.000            
       4.750        1192.480                   4.750           0.000            
       4.755        1202.760                   4.755           0.000            
       4.760        1202.760                   4.760           0.000            
       4.765        1218.180                   4.765           0.000            
       4.770        1223.320                   4.770           0.000            
       4.775        1233.600                   4.775           0.000            
       4.780        1238.740                   4.780           0.000            
       4.785        1254.160                   4.785           0.000            
       4.790        1264.440                   4.790           0.000            
       4.795        1285.000                   4.795           0.000            
       4.800        1293.680                   4.800           0.000            
       4.805        1299.960                   4.805           0.000            
       4.810        1318.800                   4.810           0.000            
       4.815        1331.360                   4.815           0.000            
       4.820        1356.480                   4.820           0.000            
       4.825        1369.040                   4.825           0.000            
       4.830        1394.160                   4.830           0.000            
       4.835        1419.280                   4.835           0.000            
       4.840        1444.400                   4.840           0.000            
       4.845        1463.240                   4.845           0.000            
       4.850        1488.360                   4.850           0.000            
       4.855        1507.200                   4.855           0.000            
       4.860        1532.320                   4.860           0.000            
       4.865        1544.880                   4.865           0.000            
       4.870        1570.000                   4.870           0.000            
       4.875        1586.790                   4.875           0.000            
       4.880        1599.850                   4.880           0.000            
       4.885        1606.380                   4.885           0.000            
       4.890        1612.910                   4.890           0.000            
       4.895        1619.440                   4.895           0.000            
       4.900        1625.970                   4.900           0.000            
       4.905        1632.500                   4.905           0.000            
       4.910        1632.500                   4.910           0.000            
       4.915        1625.970                   4.915           0.000            
       4.920        1619.440                   4.920           0.000            
       4.925        1599.850                   4.925           0.000            
       4.930        1586.790                   4.930           0.000            
       4.935        1567.200                   4.935           0.000            
       4.940        1547.610                   4.940           0.000            
       4.945        1534.550                   4.945           0.000            
       4.950        1515.000                   4.950           0.000            
       4.955        1478.640                   4.955           0.000            
       4.960        1448.340                   4.960           0.000            
       4.965        1411.980                   4.965           0.000            
       4.970        1381.680                   4.970           0.000            
       4.975        1339.260                   4.975           0.000            
       4.980        1302.900                   4.980           0.000            
       4.985        1254.420                   4.985           0.000            
       4.990        1199.880                   4.990           0.000            
       4.995        1151.400                   4.995           0.000            
       5.000        1096.860                   5.000           0.000            
       5.005        1048.380                   5.005           0.000            
       5.010         987.780                   5.010           0.000            
       5.015         921.120                   5.015           0.000            
       5.020         842.340                   5.020           0.000            
       5.025         775.000                   5.025           0.000            
       5.030         678.900                   5.030           0.000            
       5.035         598.300                   5.035           0.000            
       5.040         514.600                   5.040           0.000            
       5.045         427.800                   5.045           0.000            
       5.050         350.300                   5.050           0.000            
       5.055         282.100                   5.055           0.000            
       5.060         217.000                   5.060           0.000            
       5.065         167.400                   5.065           0.000            
       5.070         133.300                   5.070           0.000            
       5.075         102.300                   5.075           0.000            
       5.080          86.800                   5.080           0.000            
       5.085          83.700                   5.085           0.000            
       5.090          80.600                   5.090           0.000            
       5.095          74.400                   5.095           0.000            
       5.100          72.500                   5.100           0.000            
       5.105          57.420                   5.105           0.000            
       5.110          39.730                   5.110           0.000            
       5.115          37.410                   5.115           0.000            
       5.120          37.410                   5.120           0.000            
       5.125          34.800                   5.125           0.000            
       5.130          42.340                   5.130           0.000            
       5.135          34.800                   5.135           0.000            
       5.140          34.800                   5.140           0.000            
       5.145          34.800                   5.145           0.000            
       5.150          32.480                   5.150           0.000            
       5.155          39.730                   5.155           0.000            
       5.160          24.940                   5.160           0.000            
       5.165          27.260                   5.165           0.000            
       5.170          24.940                   5.170           0.000            
       5.175          22.440                   5.175           7.490            
       5.180          17.400                   5.180           4.970            
       5.185          12.480                   5.185           0.000            
       5.190          12.480                   5.190           2.450            
       5.195          17.400                   5.195           2.450            
       5.200          12.480                   5.200           0.000            
       5.205          12.480                   5.205           0.000            
       5.210          12.480                   5.210           4.970            
       5.215          15.000                   5.215           9.940            
       5.220          15.000                   5.220          12.460            
       5.225          19.920                   5.225           9.940            
       5.230          24.960                   5.230           9.940            
       5.235          24.960                   5.235          12.460            
       5.240          24.960                   5.240          17.500            
       5.245          30.000                   5.245          17.500            
       5.250          26.250                   5.250          27.360            
       5.255          17.500                   5.255          27.360            
       5.260          17.500                   5.260          24.960            
       5.265          17.500                   5.265          22.400            
       5.270          17.500                   5.270          24.960            
       5.275         175.000                   5.275          29.920            
       5.280         656.250                   5.280          32.480            
       5.285        1198.750                   5.285          29.920            
       5.290        1076.250                   5.290          32.480            
       5.295         875.000                   5.295          40.000            
       5.300         997.500                   5.300          27.360            
       5.305        1146.250                   5.305          32.480            
       5.310        1417.500                   5.310          34.880            
       5.315        1793.750                   5.315          34.880            
       5.320        2187.500                   5.320          34.880            
       5.325        2528.800                   5.325          42.500            
       5.330        2807.200                   5.330          34.850            
       5.335        2900.000                   5.335          22.440            
       5.340        2818.800                   5.340          27.370            
       5.345        2714.400                   5.345          29.920            
       5.350        2598.400                   5.350          29.920            
       5.355        2505.600                   5.355          29.920            
       5.360        2424.400                   5.360          27.370            
       5.365        2366.400                   5.365          29.920            
       5.370        2308.400                   5.370          24.990            
       5.375        2238.800                   5.375          27.370            
       5.380        2146.000                   5.380          24.990            
       5.385        2041.600                   5.385          22.440            
       5.390        1960.400                   5.390          24.990            
       5.395        1879.200                   5.395          34.850            
       5.400        1847.500                   5.400          30.000            
       5.405        1780.990                   5.405          19.920            
       5.410        1721.870                   5.410          19.920            
       5.415        1662.750                   5.415          17.400            
       5.420        1611.020                   5.420          15.000            
       5.425        1566.680                   5.425          17.400            
       5.430        1514.950                   5.430          17.400            
       5.435        1485.390                   5.435           9.960            
       5.440        1470.610                   5.440          15.000            
       5.445        1470.610                   5.445          17.400            
       5.450        1478.000                   5.450           4.920            
       5.455        1500.170                   5.455          12.480            
       5.460        1522.340                   5.460          12.480            
       5.465        1559.290                   5.465          15.000            
       5.470        1603.630                   5.470          12.480            
       5.475        1654.400                   5.475          15.000            
       5.480        1696.640                   5.480          15.000            
       5.485        1724.800                   5.485           9.960            
       5.490        1760.000                   5.490           4.980            
       5.495        1752.960                   5.495           7.500            
       5.500        1738.880                   5.500           9.960            
       5.505        1724.800                   5.505           4.980            
       5.510        1689.600                   5.510           2.460            
       5.515        1661.440                   5.515           2.460            
       5.520        1640.320                   5.520           0.000            
       5.525        1619.200                   5.525           0.000            
       5.530        1605.120                   5.530           0.000            
       5.535        1598.080                   5.535           2.460            
       5.540        1591.040                   5.540           0.000            
       5.545        1591.040                   5.545           2.460            
       5.550        1595.000                   5.550           2.500            
       5.555        1582.240                   5.555           0.000            
       5.560        1582.240                   5.560           0.000            
       5.565        1582.240                   5.565           0.000            
       5.570        1575.860                   5.570           0.000            
       5.575        1569.480                   5.575           0.000            
       5.580        1556.720                   5.580           0.000            
       5.585        1531.200                   5.585           2.500            
       5.590        1518.440                   5.590           2.500            
       5.595        1486.540                   5.595           0.000            
       5.600        1461.020                   5.600           0.000            
       5.605        1429.120                   5.605           0.000            
       5.610        1409.980                   5.610           0.000            
       5.615        1384.460                   5.615           0.000            
       5.620        1371.700                   5.620           0.000            
       5.625        1367.500                   5.625           2.500            
       5.630        1351.090                   5.630           0.000            
       5.635        1340.150                   5.635           0.000            
       5.640        1340.150                   5.640           0.000            
       5.645        1334.680                   5.645           0.000            
       5.650        1323.740                   5.650           0.000            
       5.655        1318.270                   5.655           0.000            
       5.660        1307.330                   5.660           0.000            
       5.665        1301.860                   5.665           0.000            
       5.670        1290.920                   5.670           0.000            
       5.675        1279.980                   5.675           0.000            
       5.680        1258.100                   5.680           0.000            
       5.685        1247.160                   5.685           0.000            
       5.690        1230.750                   5.690           0.000            
       5.695        1219.810                   5.695           0.000            
       5.700        1207.500                   5.700           5.000            
       5.705        1183.350                   5.705           0.000            
       5.710        1173.690                   5.710           0.000            
       5.715        1164.030                   5.715           0.000            
       5.720        1154.370                   5.720           0.000            
       5.725        1130.220                   5.725           0.000            
       5.730        1130.220                   5.730           0.000            
       5.735        1120.560                   5.735           0.000            
       5.740        1110.900                   5.740           0.000            
       5.745        1101.240                   5.745           0.000            
       5.750        1096.410                   5.750           0.000            
       5.755        1091.580                   5.755           0.000            
       5.760        1081.920                   5.760           0.000            
       5.765        1081.920                   5.765           0.000            
       5.770        1077.090                   5.770           0.000            
       5.775        1080.000                   5.775           2.500            
       5.780        1071.360                   5.780           0.000            
       5.785        1071.360                   5.785           0.000            
       5.790        1067.040                   5.790           0.000            
       5.795        1067.040                   5.795           0.000            
       5.800        1071.360                   5.800           0.000            
       5.805        1058.400                   5.805           0.000            
       5.810        1067.040                   5.810           0.000            
       5.815        1067.040                   5.815           0.000            
       5.820        1058.400                   5.820           0.000            
       5.825        1058.400                   5.825           0.000            
       5.830        1067.040                   5.830           0.000            
       5.835        1067.040                   5.835           0.000            
       5.840        1067.040                   5.840           0.000            
       5.845        1071.360                   5.845           0.000            
       5.850        1085.350                   5.850           4.980            
       5.855        1080.920                   5.855           0.000            
       5.860        1085.350                   5.860           0.000            
       5.865        1094.210                   5.865           0.000            
       5.870        1094.210                   5.870           0.000            
       5.875        1107.500                   5.875           7.500            
       5.880        1098.640                   5.880           0.000            
       5.885        1094.210                   5.885           0.000            
       5.890        1098.640                   5.890           0.000            
       5.895        1098.640                   5.895           0.000            
       5.900        1098.640                   5.900           0.000            
       5.905        1094.210                   5.905           0.000            
       5.910        1089.780                   5.910           0.000            
       5.915        1080.920                   5.915           0.000            
       5.920        1072.060                   5.920           0.000            
       5.925        1082.500                   5.925           2.500            
       5.930        1069.510                   5.930           0.000            
       5.935        1065.180                   5.935           0.000            
       5.940        1060.850                   5.940           0.000            
       5.945        1060.850                   5.945           0.000            
       5.950        1060.850                   5.950           0.000            
       5.955        1060.850                   5.955           2.500            
       5.960        1056.520                   5.960           0.000            
       5.965        1060.850                   5.965           0.000            
       5.970        1069.510                   5.970           0.000            
       5.975        1060.850                   5.975           0.000            
       5.980        1056.520                   5.980           0.000            
       5.985        1060.850                   5.985           0.000            
       5.990        1060.850                   5.990           0.000            
       5.995        1060.850                   5.995           0.000            
       6.000        1077.500                   6.000           0.000            
       6.005        1064.570                   6.005           0.000            
       6.010        1068.880                   6.010           0.000            
       6.015        1068.880                   6.015           0.000            
       6.020        1068.880                   6.020           0.000            
       6.025        1077.500                   6.025           0.000            
       6.030        1077.500                   6.030           2.500            
       6.035        1073.190                   6.035           0.000            
       6.040        1068.880                   6.040           0.000            
       6.045        1068.880                   6.045           0.000            
       6.050        1068.880                   6.050           0.000            
       6.055        1068.880                   6.055           0.000            
       6.060        1064.570                   6.060           5.000            
       6.065        1064.570                   6.065           0.000            
       6.070        1064.570                   6.070           0.000            
       6.075        1070.000                   6.075           5.000            
       6.080        1061.440                   6.080           0.000            
       6.085        1061.440                   6.085           0.000            
       6.090        1057.160                   6.090           2.500            
       6.095        1052.880                   6.095           0.000            
       6.100        1061.440                   6.100           0.000            
       6.105        1061.440                   6.105           0.000            
       6.110        1057.160                   6.110           0.000            
       6.115        1057.160                   6.115           0.000            
       6.120        1057.160                   6.120           5.000            
       6.125        1061.440                   6.125           0.000            
       6.130        1057.160                   6.130           0.000            
       6.135        1057.160                   6.135           0.000            
       6.140        1057.160                   6.140           0.000            
       6.145        1048.600                   6.145           0.000            
       6.150        1054.000                   6.150           2.500            
       6.155        1062.500                   6.155           2.500            
       6.160        1041.250                   6.160           0.000            
       6.165        1049.750                   6.165           0.000            
       6.170        1049.750                   6.170           0.000            
       6.175        1054.000                   6.175           0.000            
       6.180        1054.000                   6.180           0.000            
       6.185        1045.500                   6.185           0.000            
       6.190        1045.500                   6.190           0.000            
       6.195        1049.750                   6.195           0.000            
       6.200        1054.000                   6.200           0.000            
       6.205        1054.000                   6.205           0.000            
       6.210        1049.750                   6.210           0.000            
       6.215        1049.750                   6.215           0.000            
       6.220        1049.750                   6.220           0.000            
       6.225        1057.500                   6.225           7.500            
       6.230        1049.040                   6.230           2.490            
       6.235        1049.040                   6.235           4.980            
       6.240        1044.810                   6.240           0.000            
       6.245        1040.580                   6.245           2.490            
       6.250        1044.810                   6.250           2.490            
       6.255        1036.350                   6.255           0.000            
       6.260        1036.350                   6.260           0.000            
       6.265        1044.810                   6.265           0.000            
       6.270        1036.350                   6.270           0.000            
       6.275        1036.350                   6.275           0.000            
       6.280        1032.120                   6.280           0.000            
       6.285        1032.120                   6.285           0.000            
       6.290        1032.120                   6.290           0.000            
       6.295        1032.120                   6.295           2.490            
       6.300        1040.000                   6.300           7.500            
       6.305        1023.360                   6.305           2.490            
       6.310        1031.680                   6.310           0.000            
       6.315        1031.680                   6.315           0.000            
       6.320        1031.680                   6.320           2.490            
       6.325        1031.680                   6.325           2.490            
       6.330        1027.520                   6.330           0.000            
       6.335        1027.520                   6.335           0.000            
       6.340        1027.520                   6.340           0.000            
       6.345        1019.200                   6.345           0.000            
       6.350        1019.200                   6.350           2.490            
       6.355        1019.200                   6.355           0.000            
       6.360        1019.200                   6.360           0.000            
       6.365        1015.040                   6.365           0.000            
       6.370        1015.040                   6.370           0.000            
       6.375        1023.360                   6.375           0.000            
       6.380        1015.040                   6.380           0.000            
       6.385        1023.360                   6.385           0.000            
       6.390        1019.200                   6.390           0.000            
       6.395        1023.360                   6.395           0.000            
       6.400        1019.200                   6.400           0.000            
       6.405        1027.520                   6.405           5.000            
       6.410        1023.360                   6.410           5.000            
       6.415        1040.000                   6.415           0.000            
       6.420        1027.520                   6.420           0.000            
       6.425        1031.680                   6.425           0.000            
       6.430        1031.680                   6.430           0.000            
       6.435        1040.000                   6.435           0.000            
       6.440        1040.000                   6.440           0.000            
       6.445        1035.840                   6.445           0.000            
       6.450        1050.780                   6.450           7.500            
       6.455        1046.560                   6.455           0.000            
       6.460        1046.560                   6.460           0.000            
       6.465        1046.560                   6.465           0.000            
       6.470        1050.780                   6.470           0.000            
       6.475        1050.780                   6.475           0.000            
       6.480        1050.780                   6.480           2.490            
       6.485        1055.000                   6.485           0.000            
       6.490        1050.780                   6.490           0.000            
       6.495        1046.560                   6.495           0.000            
       6.500        1046.560                   6.500           0.000            
       6.505        1050.780                   6.505           0.000            
       6.510        1055.000                   6.510           0.000            
       6.515        1055.000                   6.515           0.000            
       6.520        1050.780                   6.520           0.000            
       6.525        1051.520                   6.525           5.000            
       6.530        1047.280                   6.530           0.000            
       6.535        1047.280                   6.535           0.000            
       6.540        1034.560                   6.540           0.000            
       6.545        1047.280                   6.545           0.000            
       6.550        1043.040                   6.550           0.000            
       6.555        1047.280                   6.555           0.000            
       6.560        1051.520                   6.560           0.000            
       6.565        1047.280                   6.565           0.000            
       6.570        1051.520                   6.570           0.000            
       6.575        1047.280                   6.575           0.000            
       6.580        1051.520                   6.580           0.000            
       6.585        1051.520                   6.585           0.000            
       6.590        1060.000                   6.590           0.000            
       6.595        1060.000                   6.595           0.000            
       6.600        1075.000                   6.600           2.500            
       6.605        1062.100                   6.605           0.000            
       6.610        1062.100                   6.610           0.000            
       6.615        1062.100                   6.615           0.000            
       6.620        1062.100                   6.620           0.000            
       6.625        1066.400                   6.625           0.000            
       6.630        1062.100                   6.630           0.000            
       6.635        1062.100                   6.635           0.000            
       6.640        1057.800                   6.640           0.000            
       6.645        1057.800                   6.645           0.000            
       6.650        1057.800                   6.650           0.000            
       6.655        1053.500                   6.655           0.000            
       6.660        1057.800                   6.660           0.000            
       6.665        1053.500                   6.665           0.000            
       6.670        1053.500                   6.670           0.000            
       6.675        1067.640                   6.675           0.000            
       6.680        1054.620                   6.680           0.000            
       6.685        1054.620                   6.685           0.000            
       6.690        1063.300                   6.690           0.000            
       6.695        1058.960                   6.695           0.000            
       6.700        1058.960                   6.700           0.000            
       6.705        1058.960                   6.705           0.000            
       6.710        1063.300                   6.710           0.000            
       6.715        1063.300                   6.715           0.000            
       6.720        1063.300                   6.720           0.000            
       6.725        1071.980                   6.725           0.000            
       6.730        1071.980                   6.730           0.000            
       6.735        1080.660                   6.735           0.000            
       6.740        1080.660                   6.740           0.000            
       6.745        1085.000                   6.745           0.000            
       6.750        1088.720                   6.750           2.500            
       6.755        1088.720                   6.755           0.000            
       6.760        1093.110                   6.760           0.000            
       6.765        1088.720                   6.765           0.000            
       6.770        1093.110                   6.770           0.000            
       6.775        1088.720                   6.775           0.000            
       6.780        1097.500                   6.780           0.000            
       6.785        1088.720                   6.785           0.000            
       6.790        1088.720                   6.790           0.000            
       6.795        1088.720                   6.795           0.000            
       6.800        1084.330                   6.800           0.000            
       6.805        1084.330                   6.805           0.000            
       6.810        1084.330                   6.810           0.000            
       6.815        1079.940                   6.815           0.000            
       6.820        1075.550                   6.820           0.000            
       6.825        1090.000                   6.825           0.000            
       6.830        1081.280                   6.830           0.000            
       6.835        1068.200                   6.835           0.000            
       6.840        1072.560                   6.840           0.000            
       6.845        1076.920                   6.845           2.500            
       6.850        1068.200                   6.850           0.000            
       6.855        1068.200                   6.855           0.000            
       6.860        1068.200                   6.860           0.000            
       6.865        1076.920                   6.865           0.000            
       6.870        1063.840                   6.870           0.000            
       6.875        1063.840                   6.875           0.000            
       6.880        1059.480                   6.880           0.000            
       6.885        1055.120                   6.885           0.000            
       6.890        1050.760                   6.890           0.000            
       6.895        1050.760                   6.895           0.000            
       6.900        1059.630                   6.900           5.000            
       6.905        1051.050                   6.905           0.000            
       6.910        1046.760                   6.910           0.000            
       6.915        1046.760                   6.915           0.000            
       6.920        1051.050                   6.920           0.000            
       6.925        1051.050                   6.925           0.000            
       6.930        1051.050                   6.930           0.000            
       6.935        1055.340                   6.935           0.000            
       6.940        1055.340                   6.940           0.000            
       6.945        1059.630                   6.945           0.000            
       6.950        1059.630                   6.950           0.000            
       6.955        1063.920                   6.955           0.000            
       6.960        1063.920                   6.960           0.000            
       6.965        1063.920                   6.965           0.000            
       6.970        1072.500                   6.970           0.000            
       6.975        1071.360                   6.975           2.500            
       6.980        1067.040                   6.980           0.000            
       6.985        1067.040                   6.985           5.000            
       6.990        1071.360                   6.990           0.000            
       6.995        1071.360                   6.995           0.000            
       7.000        1075.680                   7.000           0.000            
       7.005        1071.360                   7.005           0.000            
       7.010        1071.360                   7.010           0.000            
       7.015        1080.000                   7.015           0.000            
       7.020        1071.360                   7.020           0.000            
       7.025        1071.360                   7.025           0.000            
       7.030        1071.360                   7.030           0.000            
       7.035        1067.040                   7.035           0.000            
       7.040        1067.040                   7.040           0.000            
       7.045        1062.720                   7.045           0.000            
       7.050        1070.000                   7.050           0.000            
       7.055        1061.440                   7.055           0.000            
       7.060        1057.160                   7.060           0.000            
       7.065        1057.160                   7.065           0.000            
       7.070        1057.160                   7.070           0.000            
       7.075        1052.880                   7.075           0.000            
       7.080        1048.600                   7.080           0.000            
       7.085        1044.320                   7.085           0.000            
       7.090        1044.320                   7.090           0.000            
       7.095        1044.320                   7.095           0.000            
       7.100        1035.760                   7.100           0.000            
       7.105        1040.040                   7.105           0.000            
       7.110        1031.480                   7.110           0.000            
       7.115        1035.760                   7.115           0.000            
       7.120        1035.760                   7.120           0.000            
       7.125        1039.120                   7.125           0.000            
       7.130        1034.930                   7.130           0.000            
       7.135        1030.740                   7.135           0.000            
       7.140        1034.930                   7.140           0.000            
       7.145        1034.930                   7.145           0.000            
       7.150        1030.740                   7.150           0.000            
       7.155        1034.930                   7.155           0.000            
       7.160        1034.930                   7.160           0.000            
       7.165        1034.930                   7.165           0.000            
       7.170        1034.930                   7.170           0.000            
       7.175        1039.120                   7.175           0.000            
       7.180        1043.310                   7.180           0.000            
       7.185        1043.310                   7.185           0.000            
       7.190        1043.310                   7.190           0.000            
       7.195        1047.500                   7.195           0.000            
       7.200        1054.000                   7.200           0.000            
       7.205        1045.500                   7.205           0.000            
       7.210        1049.750                   7.210           0.000            
       7.215        1045.500                   7.215           0.000            
       7.220        1049.750                   7.220           0.000            
       7.225        1049.750                   7.225           0.000            
       7.230        1049.750                   7.230           0.000            
       7.235        1058.250                   7.235           0.000            
       7.240        1049.750                   7.240           0.000            
       7.245        1062.500                   7.245           0.000            
       7.250        1054.000                   7.250           0.000            
       7.255        1049.750                   7.255           0.000            
       7.260        1054.000                   7.260           0.000            
       7.265        1054.000                   7.265           0.000            
       7.270        1054.000                   7.270           0.000            
       7.275        1063.920                   7.275           0.000            
       7.280        1059.630                   7.280           0.000            
       7.285        1059.630                   7.285           0.000            
       7.290        1063.920                   7.290           0.000            
       7.295        1068.210                   7.295           0.000            
       7.300        1063.920                   7.300           0.000            
       7.305        1063.920                   7.305           0.000            
       7.310        1068.210                   7.310           0.000            
       7.315        1068.210                   7.315           0.000            
       7.320        1072.500                   7.320           0.000            
       7.325        1068.210                   7.325           0.000            
       7.330        1068.210                   7.330           0.000            
       7.335        1063.920                   7.335           0.000            
       7.340        1063.920                   7.340           0.000            
       7.345        1059.630                   7.345           0.000            
       7.350        1073.840                   7.350           0.000            
       7.355        1069.510                   7.355           0.000            
       7.360        1065.180                   7.360           0.000            
       7.365        1069.510                   7.365           0.000            
       7.370        1060.850                   7.370           0.000            
       7.375        1060.850                   7.375           0.000            
       7.380        1069.510                   7.380           0.000            
       7.385        1069.510                   7.385           0.000            
       7.390        1073.840                   7.390           0.000            
       7.395        1073.840                   7.395           0.000            
       7.400        1073.840                   7.400           0.000            
       7.405        1082.500                   7.405           0.000            
       7.410        1078.170                   7.410           0.000            
       7.415        1073.840                   7.415           0.000            
       7.420        1082.500                   7.420           0.000            
       7.425        1085.000                   7.425           0.000            
       7.430        1080.660                   7.430           0.000            
       7.435        1071.980                   7.435           0.000            
       7.440        1076.320                   7.440           0.000            
       7.445        1067.640                   7.445           0.000            
       7.450        1071.980                   7.450           0.000            
       7.455        1067.640                   7.455           0.000            
       7.460        1063.300                   7.460           0.000            
       7.465        1067.640                   7.465           0.000            
       7.470        1058.960                   7.470           0.000            
       7.475        1063.300                   7.475           0.000            
       7.480        1058.960                   7.480           0.000            
       7.485        1058.960                   7.485           2.490            
       7.490        1058.960                   7.490           4.980            
       7.495        1058.960                   7.495           7.500            
       7.500        1067.500                   7.500          14.700            
       7.505        1054.690                   7.505          11.900            
       7.510        1058.960                   7.510          17.500            
       7.515        1058.960                   7.515          22.400            
       7.520        1054.690                   7.520          22.400            
       7.525        1054.690                   7.525          27.300            
       7.530        1046.150                   7.530          35.000            
       7.535        1046.150                   7.535          44.800            
       7.540        1041.880                   7.540          49.700            
       7.545        1033.340                   7.545          64.400            
       7.550        1029.070                   7.550          74.900            
       7.555        1024.800                   7.555          92.400            
       7.560        1016.260                   7.560         114.800            
       7.565        1007.720                   7.565         142.100            
       7.570         999.180                   7.570         175.000            
       7.575         997.500                   7.575         220.000            
       7.580         977.550                   7.580         255.750            
       7.585         981.540                   7.585         302.500            
       7.590         961.590                   7.590         335.500            
       7.595         949.620                   7.595         371.250            
       7.600         933.660                   7.600         407.000            
       7.605         925.680                   7.605         445.500            
       7.610         913.710                   7.610         475.750            
       7.615         897.750                   7.615         514.250            
       7.620         881.790                   7.620         539.000            
       7.625         857.850                   7.625         566.500            
       7.630         845.880                   7.630         591.250            
       7.635         817.950                   7.635         624.250            
       7.640         798.000                   7.640         654.500            
       7.645         778.050                   7.645         687.500            
       7.650         767.500                   7.650         708.640            
       7.655         727.590                   7.655         729.240            
       7.660         706.100                   7.660         749.840            
       7.665         687.680                   7.665         778.680            
       7.670         672.330                   7.670         803.400            
       7.675         647.770                   7.675         824.000            
       7.680         620.140                   7.680         848.720            
       7.685         607.860                   7.685         873.440            
       7.690         583.300                   7.690         894.040            
       7.695         558.740                   7.695         922.880            
       7.700         537.250                   7.700         943.480            
       7.705         509.620                   7.705         972.320            
       7.710         478.920                   7.710         984.680            
       7.715         454.360                   7.715        1009.400            
       7.720         426.730                   7.720        1030.000            
       7.725         405.000                   7.725        1048.580            
       7.730         370.980                   7.730        1063.010            
       7.735         338.580                   7.735        1077.440            
       7.740         319.140                   7.740        1096.680            
       7.745         278.640                   7.745        1106.300            
       7.750         251.100                   7.750        1120.730            
       7.755         218.700                   7.755        1135.160            
       7.760         196.020                   7.760        1139.970            
       7.765         171.720                   7.765        1154.400            
       7.770         147.420                   7.770        1164.020            
       7.775         126.360                   7.775        1164.020            
       7.780         103.680                   7.780        1173.640            
       7.785          89.100                   7.785        1188.070            
       7.790          74.520                   7.790        1188.070            
       7.795          59.940                   7.795        1202.500            
       7.800          32.500                   7.800        1212.630            
       7.805          12.480                   7.805        1207.760            
       7.810           0.000                   7.810        1207.760            
       7.815           0.000                   7.815        1207.760            
       7.820           0.000                   7.820        1207.760            
       7.825           0.000                   7.825        1217.500            
       7.830           0.000                   7.830        1217.500            
       7.835           0.000                   7.835        1207.760            
       7.840           0.000                   7.840        1193.150            
       7.845           0.000                   7.845        1193.150            
       7.850           0.000                   7.850        1188.280            
       7.855           0.000                   7.855        1173.670            
       7.860           0.000                   7.860        1163.930            
       7.865           0.000                   7.865        1154.190            
       7.870           0.000                   7.870        1139.580            
       7.875           0.000                   7.875        1135.000            
       7.880           0.000                   7.880        1121.380            
       7.885           0.000                   7.885        1098.680            
       7.890           0.000                   7.890        1098.680            
       7.895           0.000                   7.895        1066.900            
       7.900           0.000                   7.900        1057.820            
       7.905           0.000                   7.905        1044.200            
       7.910           0.000                   7.910        1030.580            
       7.915           0.000                   7.915        1021.500            
       7.920           0.000                   7.920        1012.420            
       7.925           0.000                   7.925         994.260            
       7.930           0.000                   7.930         989.720            
       7.935           0.000                   7.935         980.640            
       7.940           0.000                   7.940         967.020            
       7.945           0.000                   7.945         967.020            
       7.950           0.000                   7.950         968.680            
       7.955           0.000                   7.955         964.710            
       7.960           0.000                   7.960         956.770            
       7.965           0.000                   7.965         964.710            
       7.970           0.000                   7.970         972.650            
       7.975           0.000                   7.975         960.740            
       7.980           0.000                   7.980         968.680            
       7.985           0.000                   7.985         964.710            
       7.990           0.000                   7.990         968.680            
       7.995           0.000                   7.995         976.620            
       8.000           0.000                   8.000         976.620            
       8.005           0.000                   8.005         984.560            
       8.010           0.000                   8.010         980.590            
       8.015           0.000                   8.015         984.560            
       8.020           0.000                   8.020         992.500            
       8.025           0.000                   8.025         999.020            
       8.030           0.000                   8.030         994.840            
       8.035           0.000                   8.035         999.020            
       8.040           0.000                   8.040        1007.380            
       8.045           0.000                   8.045        1011.560            
       8.050           0.000                   8.050        1019.920            
       8.055           0.000                   8.055        1019.920            
       8.060           0.000                   8.060        1028.280            
       8.065           0.000                   8.065        1028.280            
       8.070           0.000                   8.070        1032.460            
       8.075           0.000                   8.075        1032.460            
       8.080           0.000                   8.080        1036.640            
       8.085           0.000                   8.085        1036.640            
       8.090           0.000                   8.090        1045.000            
       8.095           0.000                   8.095        1040.820            
       8.100           0.000                   8.100        1050.000            
       8.105           0.000                   8.105        1041.600            
       8.110           0.000                   8.110        1050.000            
       8.115           0.000                   8.115        1045.800            
       8.120           0.000                   8.120        1045.800            
       8.125           0.000                   8.125        1041.600            
       8.130           0.000                   8.130        1045.800            
       8.135           0.000                   8.135        1041.600            
       8.140           0.000                   8.140        1037.400            
       8.145           0.000                   8.145        1033.200            
       8.150           0.000                   8.150        1037.400            
       8.155           0.000                   8.155        1033.200            
       8.160           0.000                   8.160        1024.800            
       8.165           0.000                   8.165        1024.800            
       8.170           0.000                   8.170        1024.800            
       8.175           0.000                   8.175        1022.500            
       8.180           0.000                   8.180        1010.230            
       8.185           0.000                   8.185        1014.320            
       8.190           0.000                   8.190        1006.140            
       8.195           0.000                   8.195         997.960            
       8.200           0.000                   8.200        1002.050            
       8.205           0.000                   8.205        1002.050            
       8.210           0.000                   8.210         997.960            
       8.215           0.000                   8.215         997.960            
       8.220           0.000                   8.220         989.780            
       8.225           0.000                   8.225         989.780            
       8.230           0.000                   8.230         985.690            
       8.235           0.000                   8.235         985.690            
       8.240           0.000                   8.240         981.600            
       8.245           0.000                   8.245         981.600            
       8.250           0.000                   8.250         984.000            
       8.255           0.000                   8.255         984.000            
       8.260           0.000                   8.260         984.000            
       8.265           0.000                   8.265         984.000            
       8.270           0.000                   8.270         984.000            
       8.275           0.000                   8.275         980.000            
       8.280           0.000                   8.280         976.000            
       8.285           0.000                   8.285         992.000            
       8.290           0.000                   8.290         984.000            
       8.295           0.000                   8.295         984.000            
       8.300           0.000                   8.300         996.000            
       8.305           0.000                   8.305         992.000            
       8.310           0.000                   8.310        1000.000            
       8.315           0.000                   8.315         992.000            
       8.320           0.000                   8.320         996.000            
       8.325           0.000                   8.325        1005.000            
       8.330           0.000                   8.330         992.940            
       8.335           0.000                   8.335         996.960            
       8.340           0.000                   8.340        1000.980            
       8.345           0.000                   8.345         996.960            
       8.350           0.000                   8.350         996.960            
       8.355           0.000                   8.355        1000.980            
       8.360           0.000                   8.360         988.920            
       8.365           0.000                   8.365         996.960            
       8.370           0.000                   8.370         996.960            
       8.375           0.000                   8.375         992.940            
       8.380           0.000                   8.380         988.920            
       8.385           0.000                   8.385         992.940            
       8.390           0.000                   8.390         996.960            
       8.395           0.000                   8.395         992.940            
       8.400           0.000                   8.400        1002.500            
       8.405           0.000                   8.405         994.480            
       8.410           0.000                   8.410         990.470            
       8.415           0.000                   8.415         994.480            
       8.420           0.000                   8.420         986.460            
       8.425           0.000                   8.425         994.480            
       8.430           0.000                   8.430         990.470            
       8.435           0.000                   8.435         986.460            
       8.440           0.000                   8.440         986.460            
       8.445           0.000                   8.445         986.460            
       8.450           0.000                   8.450         986.460            
       8.455           0.000                   8.455         982.450            
       8.460           0.000                   8.460         982.450            
       8.465           0.000                   8.465         982.450            
       8.470           0.000                   8.470         974.430            
       8.475           0.000                   8.475         980.000            
       8.480           0.000                   8.480         968.240            
       8.485           0.000                   8.485         972.160            
       8.490           0.000                   8.490         964.320            
       8.495           0.000                   8.495         968.240            
       8.500           0.000                   8.500         964.320            
       8.505           0.000                   8.505         956.480            
       8.510           0.000                   8.510         964.320            
       8.515           0.000                   8.515         964.320            
       8.520           0.000                   8.520         956.480            
       8.525           0.000                   8.525         956.480            
       8.530           0.000                   8.530         956.480            
       8.535           0.000                   8.535         956.480            
       8.540           0.000                   8.540         956.480            
       8.545           0.000                   8.545         956.480            
       8.550           0.000                   8.550         957.500            
       8.555           0.000                   8.555         953.670            
       8.560           0.000                   8.560         949.840            
       8.565           0.000                   8.565         949.840            
       8.570           0.000                   8.570         949.840            
       8.575           0.000                   8.575         946.010            
       8.580           0.000                   8.580         949.840            
       8.585           0.000                   8.585         946.010            
       8.590           0.000                   8.590         942.180            
       8.595           0.000                   8.595         938.350            
       8.600           0.000                   8.600         938.350            
       8.605           0.000                   8.605         938.350            
       8.610           0.000                   8.610         934.520            
       8.615           0.000                   8.615         930.690            
       8.620           0.000                   8.620         930.690            
       8.625           0.000                   8.625         927.520            
       8.630           0.000                   8.630         923.780            
       8.635           0.000                   8.635         923.780            
       8.640           0.000                   8.640         916.300            
       8.645           0.000                   8.645         920.040            
       8.650           0.000                   8.650         916.300            
       8.655           0.000                   8.655         923.780            
       8.660           0.000                   8.660         923.780            
       8.665           0.000                   8.665         923.780            
       8.670           0.000                   8.670         923.780            
       8.675           0.000                   8.675         931.260            
       8.680           0.000                   8.680         927.520            
       8.685           0.000                   8.685         935.000            
       8.690           0.000                   8.690         927.520            
       8.695           0.000                   8.695         927.520            
       8.700           0.000                   8.700         933.660            
       8.705           0.000                   8.705         929.880            
       8.710           0.000                   8.710         937.440            
       8.715           0.000                   8.715         929.880            
       8.720           0.000                   8.720         937.440            
       8.725           0.000                   8.725         937.440            
       8.730           0.000                   8.730         937.440            
       8.735           0.000                   8.735         945.000            
       8.740           0.000                   8.740         937.440            
       8.745           0.000                   8.745         937.440            
       8.750           0.000                   8.750         941.220            
       8.755           0.000                   8.755         933.660            
       8.760           0.000                   8.760         937.440            
       8.765           0.000                   8.765         941.220            
       8.770           0.000                   8.770         941.220            
       8.775           0.000                   8.775         948.690            
       8.780           0.000                   8.780         944.880            
       8.785           0.000                   8.785         944.880            
       8.790           0.000                   8.790         948.690            
       8.795           0.000                   8.795         948.690            
       8.800           0.000                   8.800         948.690            
       8.805           0.000                   8.805         952.500            
       8.810           0.000                   8.810         948.690            
       8.815           0.000                   8.815         952.500            
       8.820           0.000                   8.820         948.690            
       8.825           0.000                   8.825         937.260            
       8.830           0.000                   8.830         925.830            
       8.835           0.000                   8.835         929.640            
       8.840           0.000                   8.840         922.020            
       8.845           0.000                   8.845         922.020            
       8.850           0.000                   8.850         922.500            
       8.855           0.000                   8.855         904.050            
       8.860           0.000                   8.860         896.670            
       8.865           0.000                   8.865         881.910            
       8.870          15.840                   8.870         874.530            
       8.875          36.960                   8.875         852.390            
       8.880          45.760                   8.880         845.010            
       8.885          79.200                   8.885         830.250            
       8.890         114.400                   8.890         811.800            
       8.895         140.800                   8.895         797.040            
       8.900         184.800                   8.900         774.900            
       8.905         249.920                   8.905         749.070            
       8.910         311.520                   8.910         726.930            
       8.915         381.920                   8.915         701.100            
       8.920         440.000                   8.920         671.580            
       8.925         514.100                   8.925         647.500            
       8.930         586.850                   8.930         611.240            
       8.935         630.500                   8.935         569.800            
       8.940         688.700                   8.940         546.490            
       8.945         746.900                   8.945         497.280            
       8.950         800.250                   8.950         445.480            
       8.955         848.750                   8.955         404.040            
       8.960         897.250                   8.960         357.420            
       8.965         945.750                   8.965         308.210            
       8.970         994.250                   8.970         256.410            
       8.975        1037.900                   8.975         214.970            
       8.980        1076.700                   8.980         178.710            
       8.985        1120.350                   8.985         142.450            
       8.990        1164.000                   8.990         108.780            
       8.995        1212.500                   8.995          85.470            
       9.000        1248.160                   9.000          67.500            
       9.005        1275.060                   9.005          24.840            
       9.010        1301.960                   9.010          12.420            
       9.015        1318.100                   9.015           4.860            
       9.020        1328.860                   9.020           0.000            
       9.025        1334.240                   9.025           0.000            
       9.030        1339.620                   9.030           0.000            
       9.035        1345.000                   9.035           0.000            
       9.040        1339.620                   9.040           0.000            
       9.045        1328.860                   9.045           0.000            
       9.050        1318.100                   9.050           0.000            
       9.055        1312.720                   9.055           0.000            
       9.060        1301.960                   9.060           0.000            
       9.065        1285.820                   9.065           0.000            
       9.070        1269.680                   9.070           0.000            
       9.075        1265.000                   9.075           0.000            
       9.080        1239.700                   9.080           0.000            
       9.085        1224.520                   9.085           0.000            
       9.090        1214.400                   9.090           0.000            
       9.095        1189.100                   9.095           0.000            
       9.100        1173.920                   9.100           0.000            
       9.105        1158.740                   9.105           0.000            
       9.110        1143.560                   9.110           0.000            
       9.115        1133.440                   9.115           0.000            
       9.120        1118.260                   9.120           2.500            
       9.125        1108.140                   9.125           0.000            
       9.130        1092.960                   9.130           0.000            
       9.135        1082.840                   9.135           0.000            
       9.140        1072.720                   9.140           0.000            
       9.145        1062.600                   9.145           0.000            
       9.150        1072.500                   9.150           0.000            
       9.155        1051.050                   9.155           0.000            
       9.160        1051.050                   9.160           0.000            
       9.165        1042.470                   9.165           0.000            
       9.170        1046.760                   9.170           0.000            
       9.175        1055.340                   9.175           0.000            
       9.180        1051.050                   9.180           0.000            
       9.185        1059.630                   9.185           0.000            
       9.190        1051.050                   9.190           0.000            
       9.195        1059.630                   9.195           0.000            
       9.200        1059.630                   9.200           0.000            
       9.205        1063.920                   9.205           0.000            
       9.210        1063.920                   9.210           0.000            
       9.215        1068.210                   9.215           0.000            
       9.220        1072.500                   9.220           0.000            
       9.225        1075.000                   9.225           0.000            
       9.230        1066.400                   9.230           0.000            
       9.235        1062.100                   9.235           0.000            
       9.240        1062.100                   9.240           0.000            
       9.245        1066.400                   9.245           0.000            
       9.250        1062.100                   9.250           0.000            
       9.255        1066.400                   9.255           0.000            
       9.260        1062.100                   9.260           0.000            
       9.265        1066.400                   9.265           0.000            
       9.270        1070.700                   9.270           0.000            
       9.275        1062.100                   9.275           0.000            
       9.280        1062.100                   9.280           0.000            
       9.285        1057.800                   9.285           0.000            
       9.290        1062.100                   9.290           0.000            
       9.295        1062.100                   9.295           0.000            
       9.300        1065.000                   9.300           0.000            
       9.305        1056.480                   9.305           0.000            
       9.310        1056.480                   9.310           0.000            
       9.315        1052.220                   9.315           0.000            
       9.320        1052.220                   9.320           0.000            
       9.325        1052.220                   9.325           0.000            
       9.330        1043.700                   9.330          10.000            
       9.335        1047.960                   9.335           2.480            
       9.340        1047.960                   9.340           0.000            
       9.345        1056.480                   9.345           0.000            
       9.350        1052.220                   9.350           5.000            
       9.355        1052.220                   9.355           0.000            
       9.360        1047.960                   9.360           5.000            
       9.365        1052.220                   9.365           0.000            
       9.370        1043.700                   9.370           2.480            
       9.375        1050.000                   9.375          12.500            
       9.380        1037.400                   9.380           5.000            
       9.385        1029.000                   9.385           0.000            
       9.390        1024.800                   9.390           0.000            
       9.395        1029.000                   9.395           7.500            
       9.400        1016.400                   9.400           2.500            
       9.405        1016.400                   9.405           2.500            
       9.410        1012.200                   9.410           0.000            
       9.415        1003.800                   9.415           5.000            
       9.420         999.600                   9.420           2.500            
       9.425         991.200                   9.425           0.000            
       9.430         991.200                   9.430           5.000            
       9.435         991.200                   9.435           0.000            
       9.440         987.000                   9.440           5.000            
       9.445         987.000                   9.445           2.500            
       9.450         985.530                   9.450           5.000            
       9.455         981.540                   9.455           2.500            
       9.460         981.540                   9.460           2.500            
       9.465         985.530                   9.465           0.000            
       9.470         981.540                   9.470           2.500            
       9.475         985.530                   9.475           5.000            
       9.480         981.540                   9.480           0.000            
       9.485         989.520                   9.485           2.500            
       9.490         981.540                   9.490           2.500            
       9.495         985.530                   9.495           2.500            
       9.500         985.530                   9.500           0.000            
       9.505         993.510                   9.505           5.000            
       9.510         989.520                   9.510           2.500            
       9.515         989.520                   9.515           5.000            
       9.520         997.500                   9.520           2.500            
       9.525        1000.640                   9.525           9.940            
       9.530         996.400                   9.530           7.490            
       9.535         992.160                   9.535           4.970            
       9.540        1004.880                   9.540           4.970            
       9.545        1004.880                   9.545           0.000            
       9.550        1004.880                   9.550           2.450            
       9.555        1009.120                   9.555           0.000            
       9.560        1013.360                   9.560          17.500            
       9.565        1021.840                   9.565           0.000            
       9.570        1021.840                   9.570           4.970            
       9.575        1030.320                   9.575           0.000            
       9.580        1034.560                   9.580           2.450            
       9.585        1034.560                   9.585           4.970            
       9.590        1038.800                   9.590           0.000            
       9.595        1060.000                   9.595           2.450            
************.***    ********.**                9.600           4.800            
************.***    ********.**                9.605           4.800            
************.***    ********.**                9.610           0.000            
************.***    ********.**                9.615           0.000            
************.***    ********.**                9.620           0.000            
************.***    ********.**                9.625           0.000            
************.***    ********.**                9.630           2.240            
************.***    ********.**                9.635           0.000            
************.***    ********.**                9.640          17.280            
************.***    ********.**                9.645          42.240            
************.***    ********.**                9.650          52.480            
************.***    ********.**                9.655          62.400            
************.***    ********.**                9.660          59.840            
************.***    ********.**                9.665          72.320            
************.***    ********.**                9.670          80.000            
************.***    ********.**                9.675         104.720            
************.***    ********.**                9.680         112.420            
************.***    ********.**                9.685         124.740            
************.***    ********.**                9.690         122.430            
************.***    ********.**                9.695         132.440            
************.***    ********.**                9.700         134.750            
************.***    ********.**                9.705         142.450            
************.***    ********.**                9.710         139.370            
************.***    ********.**                9.715         147.070            
************.***    ********.**                9.720         157.080            
************.***    ********.**                9.725         157.080            
************.***    ********.**                9.730         167.090            
************.***    ********.**                9.735         172.480            
************.***    ********.**                9.740         184.800            
************.***    ********.**                9.745         192.500            
************.***    ********.**                9.750         210.680            
************.***    ********.**                9.755         224.420            
************.***    ********.**                9.760         238.160            
************.***    ********.**                9.765         254.190            
************.***    ********.**                9.770         277.090            
************.***    ********.**                9.775         302.280            
************.***    ********.**                9.780         320.600            
************.***    ********.**                9.785         345.790            
************.***    ********.**                9.790         375.560            
************.***    ********.**                9.795         405.330            
************.***    ********.**                9.800         441.970            
************.***    ********.**                9.805         474.030            
************.***    ********.**                9.810         508.380            
************.***    ********.**                9.815         547.310            
************.***    ********.**                9.820         572.500            
************.***    ********.**                9.825         596.700            
************.***    ********.**                9.830         618.120            
************.***    ********.**                9.835         627.300            
************.***    ********.**                9.840         639.540            
************.***    ********.**                9.845         651.780            
************.***    ********.**                9.850         667.080            
************.***    ********.**                9.855         682.380            
************.***    ********.**                9.860         685.440            
************.***    ********.**                9.865         691.560            
************.***    ********.**                9.870         706.860            
************.***    ********.**                9.875         716.040            
************.***    ********.**                9.880         722.160            
************.***    ********.**                9.885         740.520            
************.***    ********.**                9.890         749.700            
************.***    ********.**                9.895         765.000            
************.***    ********.**                9.900         788.480            
************.***    ********.**                9.905         788.480            
************.***    ********.**                9.910         792.000            
************.***    ********.**                9.915         806.080            
************.***    ********.**                9.920         809.600            
************.***    ********.**                9.925         816.640            
************.***    ********.**                9.930         834.240            
************.***    ********.**                9.935         834.240            
************.***    ********.**                9.940         844.800            
************.***    ********.**                9.945         848.320            
************.***    ********.**                9.950         858.880            
************.***    ********.**                9.955         862.400            
************.***    ********.**                9.960         869.440            
************.***    ********.**                9.965         880.000            
************.***    ********.**                9.970         880.000            
************.***    ********.**                9.975         893.200            
************.***    ********.**                9.980         885.500            
************.***    ********.**                9.985         893.200            
************.***    ********.**                9.990         897.050            
************.***    ********.**                9.995         900.900            
************.***    ********.**               10.000         904.750            
************.***    ********.**               10.005         904.750            
************.***    ********.**               10.010         916.300            
************.***    ********.**               10.015         916.300            
************.***    ********.**               10.020         924.000            
************.***    ********.**               10.025         935.550            
************.***    ********.**               10.030         939.400            
************.***    ********.**               10.035         947.100            
************.***    ********.**               10.040         958.650            
************.***    ********.**               10.045         962.500            
************.***    ********.**               10.050         966.240            
************.***    ********.**               10.055         966.240            
************.***    ********.**               10.060         970.200            
************.***    ********.**               10.065         978.120            
************.***    ********.**               10.070         974.160            
************.***    ********.**               10.075         982.080            
************.***    ********.**               10.080         982.080            
************.***    ********.**               10.085         986.040            
************.***    ********.**               10.090         982.080            
************.***    ********.**               10.095         986.040            
************.***    ********.**               10.100         990.000            
************.***    ********.**               10.105         986.040            
************.***    ********.**               10.110         986.040            
************.***    ********.**               10.115         982.080            
************.***    ********.**               10.120         982.080            
************.***    ********.**               10.125         985.000            
************.***    ********.**               10.130         973.180            
************.***    ********.**               10.135         977.120            
************.***    ********.**               10.140         973.180            
************.***    ********.**               10.145         969.240            
************.***    ********.**               10.150         969.240            
************.***    ********.**               10.155         965.300            
************.***    ********.**               10.160         965.300            
************.***    ********.**               10.165         953.480            
************.***    ********.**               10.170         953.480            
************.***    ********.**               10.175         945.600            
************.***    ********.**               10.180         937.720            
************.***    ********.**               10.185         933.780            
************.***    ********.**               10.190         929.840            
************.***    ********.**               10.195         929.840            
************.***    ********.**               10.200         925.000            
************.***    ********.**               10.205         913.900            
************.***    ********.**               10.210         917.600            
************.***    ********.**               10.215         910.200            
************.***    ********.**               10.220         906.500            
************.***    ********.**               10.225         899.100            
************.***    ********.**               10.230         899.100            
************.***    ********.**               10.235         891.700            
************.***    ********.**               10.240         880.600            
************.***    ********.**               10.245         880.600            
************.***    ********.**               10.250         869.500            
************.***    ********.**               10.255         869.500            
************.***    ********.**               10.260         862.100            
************.***    ********.**               10.265         862.100            
************.***    ********.**               10.270         854.700            
************.***    ********.**               10.275         860.000            
************.***    ********.**               10.280         842.800            
************.***    ********.**               10.285         849.680            
************.***    ********.**               10.290         846.240            
************.***    ********.**               10.295         839.360            
************.***    ********.**               10.300         835.920            
************.***    ********.**               10.305         832.480            
************.***    ********.**               10.310         832.480            
************.***    ********.**               10.315         839.360            
************.***    ********.**               10.320         832.480            
************.***    ********.**               10.325         829.040            
************.***    ********.**               10.330         829.040            
************.***    ********.**               10.335         825.600            
************.***    ********.**               10.340         825.600            
************.***    ********.**               10.345         822.160            
************.***    ********.**               10.350         830.720            
************.***    ********.**               10.355         823.680            
************.***    ********.**               10.360         823.680            
************.***    ********.**               10.365         827.200            
************.***    ********.**               10.370         827.200            
************.***    ********.**               10.375         834.240            
************.***    ********.**               10.380         827.200            
************.***    ********.**               10.385         830.720            
************.***    ********.**               10.390         844.800            
************.***    ********.**               10.395         848.320            
************.***    ********.**               10.400         858.880            
************.***    ********.**               10.405         858.880            
************.***    ********.**               10.410         869.440            
************.***    ********.**               10.415         876.480            
************.***    ********.**               10.420         880.000            
************.***    ********.**               10.425         894.440            
************.***    ********.**               10.430         894.440            
************.***    ********.**               10.435         902.020            
************.***    ********.**               10.440         902.020            
************.***    ********.**               10.445         905.810            
************.***    ********.**               10.450         917.180            
************.***    ********.**               10.455         920.970            
************.***    ********.**               10.460         924.760            
************.***    ********.**               10.465         932.340            
************.***    ********.**               10.470         936.130            
************.***    ********.**               10.475         932.340            
************.***    ********.**               10.480         943.710            
************.***    ********.**               10.485         939.920            
************.***    ********.**               10.490         947.500            
************.***    ********.**               10.495         947.500            
************.***    ********.**               10.500         965.000            
************.***    ********.**               10.505         945.700            
************.***    ********.**               10.510         949.560            
************.***    ********.**               10.515         945.700            
************.***    ********.**               10.520         941.840            
************.***    ********.**               10.525         941.840            
************.***    ********.**               10.530         945.700            
************.***    ********.**               10.535         941.840            
************.***    ********.**               10.540         941.840            
************.***    ********.**               10.545         934.120            
************.***    ********.**               10.550         930.260            
************.***    ********.**               10.555         926.400            
************.***    ********.**               10.560         910.960            
************.***    ********.**               10.565         903.240            
************.***    ********.**               10.570         883.940            
