File: ulsf2   13.11.19  02:49:08
Comment: ulsf2
                    P1V325-L                                P1V322-R                                
Time[secs]          Force[N]            Time[secs]          Force[N]            
       0.000         562.500                   0.000           0.000            
       0.005         553.500                   0.005           0.000            
       0.010         553.500                   0.010           0.000            
       0.015         555.750                   0.015           0.000            
       0.020         555.750                   0.020           0.000            
       0.025         553.500                   0.025           0.000            
       0.030         553.500                   0.030           0.000            
       0.035         553.500                   0.035           0.000            
       0.040         553.500                   0.040           0.000            
       0.045         549.000                   0.045           0.000            
       0.050         551.250                   0.050           0.000            
       0.055         551.250                   0.055           0.000            
       0.060         549.000                   0.060           0.000            
       0.065         549.000                   0.065           0.000            
       0.070         551.250                   0.070           0.000            
       0.075         552.500                   0.075           0.000            
       0.080         543.660                   0.080           0.000            
       0.085         545.870                   0.085           0.000            
       0.090         548.080                   0.090           0.000            
       0.095         548.080                   0.095           0.000            
       0.100         545.870                   0.100           0.000            
       0.105         548.080                   0.105           0.000            
       0.110         543.660                   0.110           0.000            
       0.115         545.870                   0.115           0.000            
       0.120         552.500                   0.120           0.000            
       0.125         545.870                   0.125           0.000            
       0.130         545.870                   0.130           0.000            
       0.135         545.870                   0.135           0.000            
       0.140         548.080                   0.140           0.000            
       0.145         543.660                   0.145           0.000            
       0.150         552.500                   0.150           0.000            
       0.155         543.660                   0.155           0.000            
       0.160         545.870                   0.160           0.000            
       0.165         548.080                   0.165           0.000            
       0.170         545.870                   0.170           0.000            
       0.175         543.660                   0.175           0.000            
       0.180         543.660                   0.180           0.000            
       0.185         552.500                   0.185           0.000            
       0.190         541.450                   0.190           0.000            
       0.195         543.660                   0.195           0.000            
       0.200         545.870                   0.200           0.000            
       0.205         545.870                   0.205           0.000            
       0.210         543.660                   0.210           0.000            
       0.215         548.080                   0.215           0.000            
       0.220         545.870                   0.220           0.000            
       0.225         553.700                   0.225           0.000            
       0.230         549.180                   0.230           0.000            
       0.235         553.700                   0.235           0.000            
       0.240         551.440                   0.240           0.000            
       0.245         553.700                   0.245           0.000            
       0.250         553.700                   0.250           0.000            
       0.255         555.960                   0.255           0.000            
       0.260         553.700                   0.260           0.000            
       0.265         565.000                   0.265           0.000            
       0.270         558.220                   0.270           0.000            
       0.275         558.220                   0.275           0.000            
       0.280         555.960                   0.280           0.000            
       0.285         555.960                   0.285           0.000            
       0.290         558.220                   0.290           0.000            
       0.295         560.480                   0.295           0.000            
       0.300         562.500                   0.300           0.000            
       0.305         555.750                   0.305           0.000            
       0.310         555.750                   0.310           0.000            
       0.315         555.750                   0.315           0.000            
       0.320         551.250                   0.320           0.000            
       0.325         551.250                   0.325           0.000            
       0.330         551.250                   0.330           0.000            
       0.335         549.000                   0.335           0.000            
       0.340         549.000                   0.340           0.000            
       0.345         544.500                   0.345           0.000            
       0.350         542.250                   0.350           0.000            
       0.355         546.750                   0.355           0.000            
       0.360         544.500                   0.360           0.000            
       0.365         542.250                   0.365           0.000            
       0.370         549.000                   0.370           0.000            
       0.375         550.000                   0.375           0.000            
       0.380         543.400                   0.380           0.000            
       0.385         550.000                   0.385           0.000            
       0.390         545.600                   0.390           0.000            
       0.395         543.400                   0.395           0.000            
       0.400         550.000                   0.400           0.000            
       0.405         545.600                   0.405           0.000            
       0.410         550.000                   0.410           0.000            
       0.415         550.000                   0.415           0.000            
       0.420         550.000                   0.420           0.000            
       0.425         545.600                   0.425           0.000            
       0.430         545.600                   0.430           0.000            
       0.435         550.000                   0.435           0.000            
       0.440         545.600                   0.440           0.000            
       0.445         545.600                   0.445           0.000            
       0.450         552.500                   0.450           0.000            
       0.455         545.870                   0.455           0.000            
       0.460         545.870                   0.460           0.000            
       0.465         543.660                   0.465           0.000            
       0.470         545.870                   0.470           0.000            
       0.475         543.660                   0.475           0.000            
       0.480         545.870                   0.480           0.000            
       0.485         543.660                   0.485           0.000            
       0.490         543.660                   0.490           0.000            
       0.495         548.080                   0.495           0.000            
       0.500         545.870                   0.500           0.000            
       0.505         545.870                   0.505           0.000            
       0.510         543.660                   0.510           0.000            
       0.515         543.660                   0.515           0.000            
       0.520         548.080                   0.520           0.000            
       0.525         550.000                   0.525           0.000            
       0.530         545.600                   0.530           0.000            
       0.535         541.200                   0.535           0.000            
       0.540         545.600                   0.540           0.000            
       0.545         539.000                   0.545           0.000            
       0.550         541.200                   0.550           0.000            
       0.555         539.000                   0.555           0.000            
       0.560         539.000                   0.560           0.000            
       0.565         541.200                   0.565           0.000            
       0.570         541.200                   0.570           0.000            
       0.575         539.000                   0.575           0.000            
       0.580         541.200                   0.580           0.000            
       0.585         539.000                   0.585           0.000            
       0.590         534.600                   0.590           0.000            
       0.595         539.000                   0.595           0.000            
       0.600         542.500                   0.600           0.000            
       0.605         533.820                   0.605           0.000            
       0.610         531.650                   0.610           0.000            
       0.615         533.820                   0.615           0.000            
       0.620         533.820                   0.620           0.000            
       0.625         527.310                   0.625           0.000            
       0.630         531.650                   0.630           0.000            
       0.635         531.650                   0.635           0.000            
       0.640         531.650                   0.640           0.000            
       0.645         529.480                   0.645           0.000            
       0.650         531.650                   0.650           0.000            
       0.655         531.650                   0.655           0.000            
       0.660         533.820                   0.660           0.000            
       0.665         535.990                   0.665           0.000            
       0.670         533.820                   0.670           0.000            
       0.675         535.000                   0.675           0.000            
       0.680         530.720                   0.680           0.000            
       0.685         530.720                   0.685           0.000            
       0.690         530.720                   0.690           0.000            
       0.695         535.000                   0.695           0.000            
       0.700         528.580                   0.700           0.000            
       0.705         535.000                   0.705           0.000            
       0.710         535.000                   0.710           0.000            
       0.715         530.720                   0.715           0.000            
       0.720         528.580                   0.720           0.000            
       0.725         528.580                   0.725           0.000            
       0.730         528.580                   0.730           0.000            
       0.735         528.580                   0.735           0.000            
       0.740         528.580                   0.740           0.000            
       0.745         535.000                   0.745           0.000            
       0.750         535.000                   0.750           0.000            
       0.755         530.720                   0.755           0.000            
       0.760         528.580                   0.760           0.000            
       0.765         530.720                   0.765           0.000            
       0.770         530.720                   0.770           0.000            
       0.775         530.720                   0.775           0.000            
       0.780         528.580                   0.780           0.000            
       0.785         528.580                   0.785           0.000            
       0.790         530.720                   0.790           0.000            
       0.795         530.720                   0.795           0.000            
       0.800         526.440                   0.800           0.000            
       0.805         528.580                   0.805           0.000            
       0.810         524.300                   0.810           0.000            
       0.815         524.300                   0.815           0.000            
       0.820         524.300                   0.820           0.000            
       0.825         527.500                   0.825           0.000            
       0.830         516.950                   0.830           0.000            
       0.835         519.060                   0.835           0.000            
       0.840         516.950                   0.840           0.000            
       0.845         514.840                   0.845           0.000            
       0.850         514.840                   0.850           0.000            
       0.855         514.840                   0.855           0.000            
       0.860         510.620                   0.860           0.000            
       0.865         508.510                   0.865           0.000            
       0.870         506.400                   0.870           0.000            
       0.875         506.400                   0.875           0.000            
       0.880         502.180                   0.880           0.000            
       0.885         497.960                   0.885           0.000            
       0.890         493.740                   0.890           0.000            
       0.895         497.960                   0.895           0.000            
       0.900         501.720                   0.900           0.000            
       0.905         499.500                   0.905           0.000            
       0.910         501.720                   0.910           0.000            
       0.915         501.720                   0.915           0.000            
       0.920         508.380                   0.920           0.000            
       0.925         508.380                   0.925           0.000            
       0.930         508.380                   0.930           0.000            
       0.935         512.820                   0.935           0.000            
       0.940         517.260                   0.940           0.000            
       0.945         523.920                   0.945           0.000            
       0.950         528.360                   0.950           0.000            
       0.955         537.240                   0.955           0.000            
       0.960         539.460                   0.960           0.000            
       0.965         546.120                   0.965           0.000            
       0.970         555.000                   0.970           0.000            
       0.975         567.000                   0.975           0.000            
       0.980         567.000                   0.980           0.000            
       0.985         582.750                   0.985           0.000            
       0.990         592.200                   0.990           0.000            
       0.995         607.950                   0.995           0.000            
       1.000         620.550                   1.000           0.000            
       1.005         636.300                   1.005           0.000            
       1.010         652.050                   1.010           0.000            
       1.015         664.650                   1.015           0.000            
       1.020         683.550                   1.020           0.000            
       1.025         702.450                   1.025           0.000            
       1.030         724.500                   1.030           0.000            
       1.035         746.550                   1.035           0.000            
       1.040         762.300                   1.040           0.000            
       1.045         787.500                   1.045           0.000            
       1.050         809.490                   1.050           0.000            
       1.055         824.010                   1.055           0.000            
       1.060         838.530                   1.060           0.000            
       1.065         856.680                   1.065           0.000            
       1.070         871.200                   1.070           0.000            
       1.075         889.350                   1.075           0.000            
       1.080         892.980                   1.080           0.000            
       1.085         896.610                   1.085           0.000            
       1.090         903.870                   1.090           0.000            
       1.095         903.870                   1.095           0.000            
       1.100         907.500                   1.100           0.000            
       1.105         900.240                   1.105           0.000            
       1.110         896.610                   1.110           0.000            
       1.115         889.350                   1.115           0.000            
       1.120         878.460                   1.120           0.000            
       1.125         877.500                   1.125           0.000            
       1.130         859.950                   1.130           0.000            
       1.135         849.420                   1.135           0.000            
       1.140         835.380                   1.140           0.000            
       1.145         824.850                   1.145           0.000            
       1.150         807.300                   1.150           0.000            
       1.155         793.260                   1.155           0.000            
       1.160         775.710                   1.160           0.000            
       1.165         754.650                   1.165           0.000            
       1.170         737.100                   1.170           0.000            
       1.175         709.020                   1.175           0.000            
       1.180         684.450                   1.180           0.000            
       1.185         652.860                   1.185           0.000            
       1.190         617.760                   1.190           0.000            
       1.195         582.660                   1.195           0.000            
       1.200         542.500                   1.200           0.000            
       1.205         490.420                   1.205           0.000            
       1.210         449.190                   1.210           0.000            
       1.215         394.940                   1.215           0.000            
       1.220         338.520                   1.220           0.000            
       1.225         284.270                   1.225           0.000            
       1.230         225.680                   1.230           0.000            
       1.235         173.600                   1.235           0.000            
       1.240         125.860                   1.240           0.000            
       1.245          99.820                   1.245           0.000            
       1.250          75.950                   1.250           0.000            
       1.255          67.270                   1.255           0.000            
       1.260          36.890                   1.260           0.000            
       1.265          28.210                   1.265           0.000            
       1.270          30.380                   1.270           0.000            
       1.275          35.000                   1.275           0.000            
       1.280          32.480                   1.280           0.000            
       1.285          27.440                   1.285           0.000            
       1.290          29.960                   1.290           0.000            
       1.295          29.960                   1.295           0.000            
       1.300          27.440                   1.300           0.000            
       1.305          29.960                   1.305           0.000            
       1.310          32.480                   1.310           0.000            
       1.315          32.480                   1.315           0.000            
       1.320          29.960                   1.320           0.000            
       1.325          27.440                   1.325           0.000            
       1.330          24.920                   1.330           0.000            
       1.335          27.440                   1.335           0.000            
       1.340          22.400                   1.340           0.000            
       1.345          24.920                   1.345           0.000            
       1.350          30.000                   1.350           0.000            
       1.355          24.960                   1.355           0.000            
       1.360          19.920                   1.360           0.000            
       1.365          24.960                   1.365           0.000            
       1.370          24.960                   1.370           0.000            
       1.375          24.960                   1.375           0.000            
       1.380          22.440                   1.380           0.000            
       1.385          17.400                   1.385           0.000            
       1.390          15.000                   1.390           0.000            
       1.395          15.000                   1.395           0.000            
       1.400          17.400                   1.400           0.000            
       1.405          17.400                   1.405           0.000            
       1.410          15.000                   1.410           0.000            
       1.415          12.480                   1.415           0.000            
       1.420          12.480                   1.420           0.000            
       1.425          14.950                   1.425           0.000            
       1.430          14.950                   1.430           0.000            
       1.435          11.960                   1.435           0.000            
       1.440          11.960                   1.440           0.000            
       1.445          14.950                   1.445           0.000            
       1.450          11.960                   1.450           0.000            
       1.455          14.950                   1.455           0.000            
       1.460          14.950                   1.460           0.000            
       1.465          14.950                   1.465           0.000            
       1.470          14.950                   1.470           0.000            
       1.475          14.950                   1.475           0.000            
       1.480          14.950                   1.480           0.000            
       1.485          47.840                   1.485           0.000            
       1.490         331.890                   1.490           0.000            
       1.495         747.500                   1.495           0.000            
       1.500         738.150                   1.500           0.000            
       1.505         674.880                   1.505           0.000            
       1.510         717.060                   1.510           0.000            
       1.515         822.510                   1.515           0.000            
       1.520        1054.500                   1.520           0.000            
       1.525        1525.510                   1.525           0.000            
       1.530        1757.500                   1.530           0.000            
       1.535        1750.470                   1.535           0.000            
       1.540        1630.960                   1.540           0.000            
       1.545        1518.480                   1.545           0.000            
       1.550        1398.970                   1.550           0.000            
       1.555        1279.460                   1.555           0.000            
       1.560        1174.010                   1.560           0.000            
       1.565        1124.800                   1.565           0.000            
       1.570        1096.680                   1.570           0.000            
       1.575        1087.500                   1.575           0.000            
       1.580        1065.750                   1.580           0.000            
       1.585        1061.400                   1.585           0.000            
       1.590        1061.400                   1.590           0.000            
       1.595        1048.350                   1.595           0.000            
       1.600        1048.350                   1.600           0.000            
       1.605        1044.000                   1.605           0.000            
       1.610        1044.000                   1.610           0.000            
       1.615        1044.000                   1.615           0.000            
       1.620        1044.000                   1.620           0.000            
       1.625        1044.000                   1.625           0.000            
       1.630        1039.650                   1.630           0.000            
       1.635        1022.250                   1.635           0.000            
       1.640         996.150                   1.640           0.000            
       1.645         965.700                   1.645           0.000            
       1.650         947.500                   1.650           0.000            
       1.655         913.390                   1.655           0.000            
       1.660         886.860                   1.660           0.000            
       1.665         860.330                   1.665           0.000            
       1.670         830.010                   1.670           0.000            
       1.675         803.480                   1.675           0.000            
       1.680         776.950                   1.680           0.000            
       1.685         761.790                   1.685           0.000            
       1.690         746.630                   1.690           0.000            
       1.695         723.890                   1.695           0.000            
       1.700         708.730                   1.700           0.000            
       1.705         693.570                   1.705           0.000            
       1.710         670.830                   1.710           0.000            
       1.715         659.460                   1.715           0.000            
       1.720         644.300                   1.720           0.000            
       1.725         635.000                   1.725           0.000            
       1.730         617.220                   1.730           0.000            
       1.735         614.680                   1.735           0.000            
       1.740         609.600                   1.740           0.000            
       1.745         601.980                   1.745           0.000            
       1.750         591.820                   1.750           0.000            
       1.755         584.200                   1.755           0.000            
       1.760         574.040                   1.760           0.000            
       1.765         566.420                   1.765           0.000            
       1.770         556.260                   1.770           0.000            
       1.775         546.100                   1.775           0.000            
       1.780         538.480                   1.780           0.000            
       1.785         525.780                   1.785           0.000            
       1.790         518.160                   1.790           0.000            
       1.795         510.540                   1.795           0.000            
       1.800         502.500                   1.800           0.000            
       1.805         494.460                   1.805           0.000            
       1.810         484.410                   1.810           0.000            
       1.815         476.370                   1.815           0.000            
       1.820         468.330                   1.820           0.000            
       1.825         464.310                   1.825           0.000            
       1.830         458.280                   1.830           0.000            
       1.835         452.250                   1.835           0.000            
       1.840         446.220                   1.840           0.000            
       1.845         438.180                   1.845           0.000            
       1.850         434.160                   1.850           0.000            
       1.855         432.150                   1.855           0.000            
       1.860         428.130                   1.860           0.000            
       1.865         428.130                   1.865           0.000            
       1.870         424.110                   1.870           0.000            
       1.875         427.500                   1.875           0.000            
       1.880         413.820                   1.880           0.000            
       1.885         422.370                   1.885           0.000            
       1.890         418.950                   1.890           0.000            
       1.895         413.820                   1.895           0.000            
       1.900         413.820                   1.900           0.000            
       1.905         412.110                   1.905           0.000            
       1.910         413.820                   1.910           0.000            
       1.915         406.980                   1.915           0.000            
       1.920         412.110                   1.920           0.000            
       1.925         408.690                   1.925           0.000            
       1.930         412.110                   1.930           0.000            
       1.935         417.240                   1.935           0.000            
       1.940         417.240                   1.940           0.000            
       1.945         413.820                   1.945           0.000            
       1.950         415.860                   1.950           0.000            
       1.955         412.380                   1.955           0.000            
       1.960         414.120                   1.960           0.000            
       1.965         415.860                   1.965           0.000            
       1.970         419.340                   1.970           0.000            
       1.975         419.340                   1.975           0.000            
       1.980         421.080                   1.980           0.000            
       1.985         424.560                   1.985           0.000            
       1.990         424.560                   1.990           0.000            
       1.995         431.520                   1.995           0.000            
       2.000         426.300                   2.000           0.000            
       2.005         435.000                   2.005           0.000            
       2.010         431.520                   2.010           0.000            
       2.015         435.000                   2.015           0.000            
       2.020         435.000                   2.020           0.000            
       2.025         442.500                   2.025           0.000            
       2.030         433.650                   2.030           0.000            
       2.035         437.190                   2.035           0.000            
       2.040         433.650                   2.040           0.000            
       2.045         438.960                   2.045           0.000            
       2.050         437.190                   2.050           0.000            
       2.055         431.880                   2.055           0.000            
       2.060         437.190                   2.060           0.000            
       2.065         437.190                   2.065           0.000            
       2.070         433.650                   2.070           0.000            
       2.075         431.880                   2.075           0.000            
       2.080         431.880                   2.080           0.000            
       2.085         433.650                   2.085           0.000            
       2.090         431.880                   2.090           0.000            
       2.095         438.960                   2.095           0.000            
       2.100         443.450                   2.100           0.000            
       2.105         439.830                   2.105           0.000            
       2.110         439.830                   2.110           0.000            
       2.115         441.640                   2.115           0.000            
       2.120         443.450                   2.120           0.000            
       2.125         447.070                   2.125           0.000            
       2.130         441.640                   2.130           0.000            
       2.135         448.880                   2.135           0.000            
       2.140         447.070                   2.140           0.000            
       2.145         447.070                   2.145           0.000            
       2.150         448.880                   2.150           0.000            
       2.155         447.070                   2.155           0.000            
       2.160         452.500                   2.160           0.000            
       2.165         447.070                   2.165           0.000            
       2.170         452.500                   2.170           0.000            
       2.175         456.280                   2.175           0.000            
       2.180         454.410                   2.180           0.000            
       2.185         454.410                   2.185           0.000            
       2.190         454.410                   2.190           0.000            
       2.195         456.280                   2.195           0.000            
       2.200         458.150                   2.200           0.000            
       2.205         458.150                   2.205           0.000            
       2.210         458.150                   2.210           0.000            
       2.215         463.760                   2.215           0.000            
       2.220         461.890                   2.220           0.000            
       2.225         463.760                   2.225           0.000            
       2.230         467.500                   2.230           0.000            
       2.235         467.500                   2.235           0.000            
       2.240         463.760                   2.240           0.000            
       2.245         467.500                   2.245           0.000            
       2.250         475.000                   2.250           0.000            
       2.255         463.600                   2.255           0.000            
       2.260         467.400                   2.260           0.000            
       2.265         463.600                   2.265           0.000            
       2.270         467.400                   2.270           0.000            
       2.275         467.400                   2.275           0.000            
       2.280         471.200                   2.280           0.000            
       2.285         463.600                   2.285           0.000            
       2.290         463.600                   2.290           0.000            
       2.295         461.700                   2.295           0.000            
       2.300         463.600                   2.300           0.000            
       2.305         463.600                   2.305           0.000            
       2.310         459.800                   2.310           0.000            
       2.315         459.800                   2.315           0.000            
       2.320         456.000                   2.320           0.000            
       2.325         465.000                   2.325           0.000            
       2.330         453.840                   2.330           0.000            
       2.335         453.840                   2.335           0.000            
       2.340         451.980                   2.340           0.000            
       2.345         451.980                   2.345           0.000            
       2.350         455.700                   2.350           0.000            
       2.355         453.840                   2.355           0.000            
       2.360         453.840                   2.360           0.000            
       2.365         448.260                   2.365           0.000            
       2.370         448.260                   2.370           0.000            
       2.375         451.980                   2.375           0.000            
       2.380         448.260                   2.380           0.000            
       2.385         448.260                   2.385           0.000            
       2.390         448.260                   2.390           0.000            
       2.395         444.540                   2.395           0.000            
       2.400         452.010                   2.400           0.000            
       2.405         446.520                   2.405           0.000            
       2.410         441.030                   2.410           0.000            
       2.415         441.030                   2.415           0.000            
       2.420         441.030                   2.420           0.000            
       2.425         439.200                   2.425           0.000            
       2.430         439.200                   2.430           0.000            
       2.435         441.030                   2.435           0.000            
       2.440         446.520                   2.440           0.000            
       2.445         446.520                   2.445           0.000            
       2.450         448.350                   2.450           0.000            
       2.455         453.840                   2.455           0.000            
       2.460         452.010                   2.460           0.000            
       2.465         453.840                   2.465           0.000            
       2.470         457.500                   2.470           0.000            
       2.475         462.480                   2.475           0.000            
       2.480         458.720                   2.480           0.000            
       2.485         458.720                   2.485           0.000            
       2.490         462.480                   2.490           0.000            
       2.495         464.360                   2.495           0.000            
       2.500         458.720                   2.500           0.000            
       2.505         464.360                   2.505           0.000            
       2.510         466.240                   2.510           0.000            
       2.515         470.000                   2.515           0.000            
       2.520         470.000                   2.520           0.000            
       2.525         464.360                   2.525           0.000            
       2.530         466.240                   2.530           0.000            
       2.535         470.000                   2.535           0.000            
       2.540         466.240                   2.540           0.000            
       2.545         464.360                   2.545           0.000            
       2.550         470.000                   2.550           0.000            
       2.555         462.480                   2.555           0.000            
       2.560         458.720                   2.560           0.000            
       2.565         454.960                   2.565           0.000            
       2.570         456.840                   2.570           0.000            
       2.575         451.200                   2.575           0.000            
       2.580         454.960                   2.580           0.000            
       2.585         451.200                   2.585           0.000            
       2.590         451.200                   2.590           0.000            
       2.595         449.320                   2.595           0.000            
       2.600         447.440                   2.600           0.000            
       2.605         449.320                   2.605           0.000            
       2.610         449.320                   2.610           0.000            
       2.615         449.320                   2.615           0.000            
       2.620         449.320                   2.620           0.000            
       2.625         456.840                   2.625           0.000            
       2.630         454.960                   2.630           0.000            
       2.635         456.840                   2.635           0.000            
       2.640         454.960                   2.640           0.000            
       2.645         454.960                   2.645           0.000            
       2.650         456.840                   2.650           0.000            
       2.655         456.840                   2.655           0.000            
       2.660         456.840                   2.660           0.000            
       2.665         458.720                   2.665           0.000            
       2.670         462.480                   2.670           0.000            
       2.675         462.480                   2.675           0.000            
       2.680         466.240                   2.680           0.000            
       2.685         462.480                   2.685           0.000            
       2.690         466.240                   2.690           0.000            
       2.695         470.000                   2.695           0.000            
       2.700         473.680                   2.700           0.000            
       2.705         466.040                   2.705           0.000            
       2.710         473.680                   2.710           0.000            
       2.715         473.680                   2.715           0.000            
       2.720         471.770                   2.720           0.000            
       2.725         469.860                   2.725           0.000            
       2.730         477.500                   2.730           0.000            
       2.735         471.770                   2.735           0.000            
       2.740         469.860                   2.740           0.000            
       2.745         471.770                   2.745           0.000            
       2.750         469.860                   2.750           0.000            
       2.755         469.860                   2.755           0.000            
       2.760         464.130                   2.760           0.000            
       2.765         464.130                   2.765           0.000            
       2.770         462.220                   2.770           0.000            
       2.775         472.500                   2.775           0.000            
       2.780         464.940                   2.780           0.000            
       2.785         461.160                   2.785           0.000            
       2.790         466.830                   2.790           0.000            
       2.795         464.940                   2.795           0.000            
       2.800         464.940                   2.800           0.000            
       2.805         464.940                   2.805           0.000            
       2.810         461.160                   2.810           0.000            
       2.815         466.830                   2.815           0.000            
       2.820         464.940                   2.820           0.000            
       2.825         466.830                   2.825           0.000            
       2.830         464.940                   2.830           0.000            
       2.835         466.830                   2.835           0.000            
       2.840         464.940                   2.840           0.000            
       2.845         461.160                   2.845           0.000            
       2.850         467.500                   2.850           0.000            
       2.855         463.760                   2.855           0.000            
       2.860         463.760                   2.860           0.000            
       2.865         461.890                   2.865           0.000            
       2.870         461.890                   2.870           0.000            
       2.875         461.890                   2.875           0.000            
       2.880         461.890                   2.880           0.000            
       2.885         461.890                   2.885           0.000            
       2.890         458.150                   2.890           0.000            
       2.895         456.280                   2.895           0.000            
       2.900         454.410                   2.900           0.000            
       2.905         454.410                   2.905           0.000            
       2.910         456.280                   2.910           0.000            
       2.915         456.280                   2.915           0.000            
       2.920         458.150                   2.920           0.000            
       2.925         465.000                   2.925           0.000            
       2.930         455.700                   2.930           0.000            
       2.935         455.700                   2.935           0.000            
       2.940         459.420                   2.940           0.000            
       2.945         455.700                   2.945           0.000            
       2.950         455.700                   2.950           0.000            
       2.955         453.840                   2.955           0.000            
       2.960         451.980                   2.960           0.000            
       2.965         446.400                   2.965           0.000            
       2.970         453.840                   2.970           0.000            
       2.975         451.980                   2.975           0.000            
       2.980         451.980                   2.980           0.000            
       2.985         448.260                   2.985           0.000            
       2.990         455.700                   2.990           0.000            
       2.995         448.260                   2.995           0.000            
       3.000         456.280                   3.000           0.000            
       3.005         454.410                   3.005           0.000            
       3.010         456.280                   3.010           0.000            
       3.015         454.410                   3.015           0.000            
       3.020         454.410                   3.020           0.000            
       3.025         458.150                   3.025           0.000            
       3.030         458.150                   3.030           0.000            
       3.035         461.890                   3.035           0.000            
       3.040         461.890                   3.040           0.000            
       3.045         467.500                   3.045           0.000            
       3.050         463.760                   3.050           0.000            
       3.055         458.150                   3.055           0.000            
       3.060         461.890                   3.060           0.000            
       3.065         467.500                   3.065           0.000            
       3.070         463.760                   3.070           0.000            
       3.075         467.500                   3.075           0.000            
       3.080         458.150                   3.080           0.000            
       3.085         461.890                   3.085           0.000            
       3.090         456.280                   3.090           0.000            
       3.095         458.150                   3.095           0.000            
       3.100         458.150                   3.100           0.000            
       3.105         456.280                   3.105           0.000            
       3.110         456.280                   3.110           0.000            
       3.115         456.280                   3.115           0.000            
       3.120         456.280                   3.120           0.000            
       3.125         456.280                   3.125           0.000            
       3.130         456.280                   3.130           0.000            
       3.135         454.410                   3.135           0.000            
       3.140         450.670                   3.140           0.000            
       3.145         456.280                   3.145           0.000            
       3.150         460.000                   3.150           0.000            
       3.155         450.800                   3.155           0.000            
       3.160         454.480                   3.160           0.000            
       3.165         454.480                   3.165           0.000            
       3.170         450.800                   3.170           0.000            
       3.175         454.480                   3.175           0.000            
       3.180         448.960                   3.180           0.000            
       3.185         448.960                   3.185           0.000            
       3.190         448.960                   3.190           0.000            
       3.195         447.120                   3.195           0.000            
       3.200         447.120                   3.200           0.000            
       3.205         454.480                   3.205           0.000            
       3.210         443.440                   3.210           0.000            
       3.215         443.440                   3.215           0.000            
       3.220         443.440                   3.220           0.000            
       3.225         447.500                   3.225           0.000            
       3.230         438.550                   3.230           0.000            
       3.235         443.920                   3.235           0.000            
       3.240         443.920                   3.240           0.000            
       3.245         442.130                   3.245           0.000            
       3.250         442.130                   3.250           0.000            
       3.255         443.920                   3.255           0.000            
       3.260         443.920                   3.260           0.000            
       3.265         442.130                   3.265           0.000            
       3.270         443.920                   3.270           0.000            
       3.275         436.760                   3.275           0.000            
       3.280         443.920                   3.280           0.000            
       3.285         447.500                   3.285           0.000            
       3.290         443.920                   3.290           0.000            
       3.295         443.920                   3.295           0.000            
       3.300         450.800                   3.300           0.000            
       3.305         443.440                   3.305           0.000            
       3.310         447.120                   3.310           0.000            
       3.315         448.960                   3.315           0.000            
       3.320         454.480                   3.320           0.000            
       3.325         454.480                   3.325           0.000            
       3.330         448.960                   3.330           0.000            
       3.335         454.480                   3.335           0.000            
       3.340         460.000                   3.340           0.000            
       3.345         456.320                   3.345           0.000            
       3.350         460.000                   3.350           0.000            
       3.355         456.320                   3.355           0.000            
       3.360         456.320                   3.360           0.000            
       3.365         454.480                   3.365           0.000            
       3.370         450.800                   3.370           0.000            
       3.375         461.280                   3.375           0.000            
       3.380         453.840                   3.380           0.000            
       3.385         455.700                   3.385           0.000            
       3.390         453.840                   3.390           0.000            
       3.395         459.420                   3.395           0.000            
       3.400         459.420                   3.400           0.000            
       3.405         455.700                   3.405           0.000            
       3.410         459.420                   3.410           0.000            
       3.415         455.700                   3.415           0.000            
       3.420         465.000                   3.420           0.000            
       3.425         459.420                   3.425           0.000            
       3.430         459.420                   3.430           0.000            
       3.435         459.420                   3.435           0.000            
       3.440         459.420                   3.440           0.000            
       3.445         461.280                   3.445           0.000            
       3.450         465.000                   3.450           0.000            
       3.455         455.700                   3.455           0.000            
       3.460         455.700                   3.460           0.000            
       3.465         451.980                   3.465           0.000            
       3.470         448.260                   3.470           0.000            
       3.475         446.400                   3.475           0.000            
       3.480         448.260                   3.480           0.000            
       3.485         446.400                   3.485           0.000            
       3.490         448.260                   3.490           0.000            
       3.495         448.260                   3.495           0.000            
       3.500         446.400                   3.500           0.000            
       3.505         448.260                   3.505           0.000            
       3.510         448.260                   3.510           0.000            
       3.515         448.260                   3.515           0.000            
       3.520         451.980                   3.520           0.000            
       3.525         453.840            ************.***    ********.**         
       3.530         457.500            ************.***    ********.**         
       3.535         448.350            ************.***    ********.**         
       3.540         452.010            ************.***    ********.**         
       3.545         453.840            ************.***    ********.**         
       3.550         453.840            ************.***    ********.**         
       3.555         452.010            ************.***    ********.**         
       3.560         457.500            ************.***    ********.**         
       3.565         453.840            ************.***    ********.**         
       3.570         452.010            ************.***    ********.**         
       3.575         452.010            ************.***    ********.**         
       3.580         452.010            ************.***    ********.**         
       3.585         452.010            ************.***    ********.**         
       3.590         452.010            ************.***    ********.**         
       3.595         453.840            ************.***    ********.**         
       3.600         456.950            ************.***    ********.**         
       3.605         453.250            ************.***    ********.**         
       3.610         451.400            ************.***    ********.**         
       3.615         456.950            ************.***    ********.**         
       3.620         451.400            ************.***    ********.**         
       3.625         453.250            ************.***    ********.**         
       3.630         453.250            ************.***    ********.**         
       3.635         453.250            ************.***    ********.**         
       3.640         453.250            ************.***    ********.**         
       3.645         453.250            ************.***    ********.**         
       3.650         456.950            ************.***    ********.**         
       3.655         462.500            ************.***    ********.**         
       3.660         453.250            ************.***    ********.**         
       3.665         458.800            ************.***    ********.**         
       3.670         456.950            ************.***    ********.**         
       3.675         461.890            ************.***    ********.**         
       3.680         456.280            ************.***    ********.**         
       3.685         458.150            ************.***    ********.**         
       3.690         456.280            ************.***    ********.**         
       3.695         456.280            ************.***    ********.**         
       3.700         456.280            ************.***    ********.**         
       3.705         456.280            ************.***    ********.**         
       3.710         458.150            ************.***    ********.**         
       3.715         458.150            ************.***    ********.**         
       3.720         461.890            ************.***    ********.**         
       3.725         461.890            ************.***    ********.**         
       3.730         461.890            ************.***    ********.**         
       3.735         461.890            ************.***    ********.**         
       3.740         463.760            ************.***    ********.**         
       3.745         467.500            ************.***    ********.**         
