File: ul2   18.02.20  02:58:50
Comment: ul2
                    P1Y374-L                                P1Y373-R                                
Time[secs]          Force[N]            Time[secs]          Force[N]            
       0.000         543.120                   0.000         560.690            
       0.005         538.740                   0.005         558.420            
       0.010         536.550                   0.010         556.150            
       0.015         540.930                   0.015         556.150            
       0.020         540.930                   0.020         560.690            
       0.025         536.550                   0.025         560.690            
       0.030         547.500                   0.030         553.880            
       0.035         536.550                   0.035         558.420            
       0.040         536.550                   0.040         558.420            
       0.045         534.360                   0.045         560.690            
       0.050         536.550                   0.050         560.690            
       0.055         534.360                   0.055         556.150            
       0.060         538.740                   0.060         567.500            
       0.065         538.740                   0.065         558.420            
       0.070         532.170                   0.070         560.690            
       0.075         540.000                   0.075         561.600            
       0.080         529.200                   0.080         561.600            
       0.085         529.200                   0.085         566.280            
       0.090         518.400                   0.090         566.280            
       0.095         524.880                   0.095         570.960            
       0.100         518.400                   0.100         566.280            
       0.105         516.240                   0.105         568.620            
       0.110         516.240                   0.110         568.620            
       0.115         514.080                   0.115         566.280            
       0.120         511.920                   0.120         568.620            
       0.125         505.440                   0.125         573.300            
       0.130         503.280                   0.130         573.300            
       0.135         503.280                   0.135         575.640            
       0.140         501.120                   0.140         577.980            
       0.145         501.120                   0.145         585.000            
       0.150         505.000                   0.150         587.860            
       0.155         498.940                   0.155         585.390            
       0.160         490.860                   0.160         592.800            
       0.165         488.840                   0.165         590.330            
       0.170         480.760                   0.170         595.270            
       0.175         484.800                   0.175         597.740            
       0.180         480.760                   0.180         597.740            
       0.185         486.820                   0.185         617.500            
       0.190         474.700                   0.190         602.680            
       0.195         474.700                   0.195         607.620            
       0.200         474.700                   0.200         607.620            
       0.205         470.660                   0.205         612.560            
       0.210         470.660                   0.210         612.560            
       0.215         468.640                   0.215         617.500            
       0.220         464.600                   0.220         610.090            
       0.225         472.500                   0.225         619.970            
       0.230         464.940                   0.230         617.460            
       0.235         461.160                   0.235         614.950            
       0.240         464.940                   0.240         617.460            
       0.245         459.270                   0.245         619.970            
       0.250         459.270                   0.250         619.970            
       0.255         459.270                   0.255         619.970            
       0.260         461.160                   0.260         619.970            
       0.265         457.380                   0.265         624.990            
       0.270         459.270                   0.270         627.500            
       0.275         459.270                   0.275         624.990            
       0.280         459.270                   0.280         624.990            
       0.285         459.270                   0.285         627.500            
       0.290         461.160                   0.290         627.500            
       0.295         468.720                   0.295         622.480            
       0.300         473.280                   0.300         632.460            
       0.305         463.080                   0.305         632.460            
       0.310         471.240                   0.310         629.920            
       0.315         473.280                   0.315         624.840            
       0.320         473.280                   0.320         632.460            
       0.325         481.440                   0.325         622.300            
       0.330         477.360                   0.330         622.300            
       0.335         485.520                   0.335         627.380            
       0.340         495.720                   0.340         627.380            
       0.345         485.520                   0.345         632.460            
       0.350         493.680                   0.350         629.920            
       0.355         495.720                   0.355         635.000            
       0.360         501.840                   0.360         624.840            
       0.365         503.880                   0.365         624.840            
       0.370         510.000                   0.370         622.300            
       0.375         519.480                   0.375         627.500            
       0.380         510.600                   0.380         619.970            
       0.385         510.600                   0.385         609.930            
       0.390         523.920                   0.390         614.950            
       0.395         517.260                   0.395         614.950            
       0.400         523.920                   0.400         607.420            
       0.405         526.140                   0.405         604.910            
       0.410         530.580                   0.410         607.420            
       0.415         537.240                   0.415         599.890            
       0.420         537.240                   0.420         594.870            
       0.425         532.800                   0.425         592.360            
       0.430         539.460                   0.430         584.830            
       0.435         543.900                   0.435         582.320            
       0.440         543.900                   0.440         582.320            
       0.445         555.000                   0.445         577.300            
       0.450         559.020                   0.450         575.000            
       0.455         554.400                   0.455         565.800            
       0.460         552.090                   0.460         561.200            
       0.465         556.710                   0.465         563.500            
       0.470         554.400                   0.470         554.300            
       0.475         554.400                   0.475         554.300            
       0.480         556.710                   0.480         542.800            
       0.485         556.710                   0.485         542.800            
       0.490         559.020                   0.490         533.600            
       0.495         561.330                   0.495         533.600            
       0.500         561.330                   0.500         529.000            
       0.505         563.640                   0.505         531.300            
       0.510         565.950                   0.510         526.700            
       0.515         570.570                   0.515         517.500            
       0.520         577.500                   0.520         517.500            
       0.525         583.390                   0.525         515.000            
       0.530         580.820                   0.530         506.760            
       0.535         583.390                   0.535         504.700            
       0.540         593.670                   0.540         488.220            
       0.545         593.670                   0.545         494.400            
       0.550         596.240                   0.550         492.340            
       0.555         601.380                   0.555         482.040            
       0.560         603.950                   0.560         475.860            
       0.565         609.090                   0.565         471.740            
       0.570         616.800                   0.570         471.740            
       0.575         619.370                   0.575         459.380            
       0.580         624.510                   0.580         461.440            
       0.585         627.080                   0.585         453.200            
       0.590         632.220                   0.590         444.960            
       0.595         642.500                   0.595         440.840            
       0.600         647.460                   0.600         450.000            
       0.605         653.400                   0.605         426.600            
       0.610         662.310                   0.610         421.200            
       0.615         668.250                   0.615         412.200            
       0.620         674.190                   0.620         408.600            
       0.625         677.160                   0.625         399.600            
       0.630         694.980                   0.630         387.000            
       0.635         692.010                   0.635         387.000            
       0.640         700.920                   0.640         376.200            
       0.645         706.860                   0.645         367.200            
       0.650         709.830                   0.650         354.600            
       0.655         715.770                   0.655         351.000            
       0.660         727.650                   0.660         336.600            
       0.665         730.620                   0.665         329.400            
       0.670         742.500                   0.670         316.800            
       0.675         749.340                   0.675         310.000            
       0.680         756.580                   0.680         293.880            
       0.685         767.440                   0.685         281.480            
       0.690         774.680                   0.690         276.520            
       0.695         789.160                   0.695         261.640            
       0.700         800.020                   0.700         256.680            
       0.705         810.880                   0.705         246.760            
       0.710         825.360                   0.710         234.360            
       0.715         836.220                   0.715         229.400            
       0.720         843.460                   0.720         219.480            
       0.725         861.560                   0.725         214.520            
       0.730         868.800                   0.730         209.560            
       0.735         883.280                   0.735         202.120            
       0.740         894.140                   0.740         202.120            
       0.745         905.000                   0.745         194.680            
       0.750         921.600                   0.750         192.500            
       0.755         921.600                   0.755         187.110            
       0.760         921.600                   0.760         184.800            
       0.765         933.120                   0.765         179.410            
       0.770         936.960                   0.770         174.790            
       0.775         944.640                   0.775         172.480            
       0.780         944.640                   0.780         174.790            
       0.785         948.480                   0.785         164.780            
       0.790         944.640                   0.790         162.470            
       0.795         952.320                   0.795         157.080            
       0.800         944.640                   0.800         159.390            
       0.805         952.320                   0.805         157.080            
       0.810         952.320                   0.810         152.460            
       0.815         952.320                   0.815         149.380            
       0.820         960.000                   0.820         144.760            
       0.825         957.420                   0.825         155.000            
       0.830         957.420                   0.830         141.980            
       0.835         961.360                   0.835         144.460            
       0.840         957.420                   0.840         134.540            
       0.845         961.360                   0.845         137.020            
       0.850         957.420                   0.850         139.500            
       0.855         957.420                   0.855         139.500            
       0.860         961.360                   0.860         141.980            
       0.865         961.360                   0.865         139.500            
       0.870         965.300                   0.870         137.020            
       0.875         961.360                   0.875         132.060            
       0.880         973.180                   0.880         137.020            
       0.885         969.240                   0.885         134.540            
       0.890         969.240                   0.890         134.540            
       0.895         985.000                   0.895         137.020            
       0.900         985.000                   0.900         137.500            
       0.905         973.180                   0.905         132.000            
       0.910         977.120                   0.910         124.850            
       0.915         969.240                   0.915         129.800            
       0.920         969.240                   0.920         129.800            
       0.925         961.360                   0.925         127.050            
       0.930         969.240                   0.930         124.850            
       0.935         969.240                   0.935         119.900            
       0.940         969.240                   0.940         127.050            
       0.945         961.360                   0.945         124.850            
       0.950         961.360                   0.950         122.100            
       0.955         965.300                   0.955         119.900            
       0.960         969.240                   0.960         124.850            
       0.965         969.240                   0.965         114.950            
       0.970         965.300                   0.970         117.150            
       0.975         969.600                   0.975         120.000            
       0.980         965.560                   0.980         120.000            
       0.985         989.800                   0.985         114.720            
       0.990         973.640                   0.990         109.920            
       0.995         977.680                   0.995         109.920            
       1.000         981.720                   1.000         107.040            
       1.005         981.720                   1.005         107.040            
       1.010         981.720                   1.010         104.640            
       1.015         985.760                   1.015         102.240            
       1.020         989.800                   1.020          99.840            
       1.025         993.840                   1.025          94.560            
       1.030         993.840                   1.030          84.960            
       1.035         997.880                   1.035          79.680            
       1.040         993.840                   1.040          79.680            
       1.045        1010.000                   1.045          72.480            
       1.050        1014.610                   1.050          62.500            
       1.055        1014.610                   1.055          42.500            
       1.060        1023.030                   1.060          35.000            
       1.065        1023.030                   1.065          30.000            
       1.070        1027.240                   1.070          20.000            
       1.075        1031.450                   1.075          17.500            
       1.080        1039.870                   1.080           5.000            
       1.085        1039.870                   1.085           5.000            
       1.090        1039.870                   1.090           5.000            
       1.095        1039.870                   1.095           0.000            
       1.100        1044.080                   1.100           0.000            
       1.105        1044.080                   1.105           0.000            
       1.110        1044.080                   1.110           0.000            
       1.115        1048.290                   1.115           0.000            
       1.120        1052.500                   1.120           0.000            
       1.125        1062.500                   1.125           5.000            
       1.130        1054.000                   1.130           0.000            
       1.135        1049.750                   1.135           0.000            
       1.140        1058.250                   1.140           0.000            
       1.145        1054.000                   1.145           0.000            
       1.150        1049.750                   1.150           0.000            
       1.155        1054.000                   1.155           0.000            
       1.160        1054.000                   1.160           0.000            
       1.165        1049.750                   1.165           0.000            
       1.170        1054.000                   1.170           0.000            
       1.175        1054.000                   1.175           0.000            
       1.180        1049.750                   1.180           0.000            
       1.185        1049.750                   1.185           0.000            
       1.190        1054.000                   1.190           0.000            
       1.195        1045.500                   1.195           0.000            
       1.200        1057.500                   1.200           0.000            
       1.205        1040.580                   1.205           0.000            
       1.210        1044.810                   1.210           0.000            
       1.215        1044.810                   1.215           0.000            
       1.220        1044.810                   1.220           0.000            
       1.225        1044.810                   1.225           0.000            
       1.230        1049.040                   1.230           0.000            
       1.235        1049.040                   1.235           0.000            
       1.240        1044.810                   1.240           0.000            
       1.245        1044.810                   1.245           0.000            
       1.250        1040.580                   1.250           0.000            
       1.255        1044.810                   1.255           0.000            
       1.260        1049.040                   1.260           0.000            
       1.265        1044.810                   1.265           0.000            
       1.270        1040.580                   1.270           0.000            
       1.275        1050.000                   1.275           0.000            
       1.280        1041.600                   1.280           0.000            
       1.285        1041.600                   1.285           0.000            
       1.290        1041.600                   1.290           0.000            
       1.295        1041.600                   1.295           0.000            
       1.300        1037.400                   1.300           0.000            
       1.305        1041.600                   1.305           0.000            
       1.310        1029.000                   1.310           0.000            
       1.315        1033.200                   1.315           0.000            
       1.320        1029.000                   1.320           0.000            
       1.325        1024.800                   1.325           0.000            
       1.330        1029.000                   1.330           0.000            
       1.335        1024.800                   1.335           0.000            
       1.340        1029.000                   1.340           0.000            
       1.345        1024.800                   1.345           0.000            
       1.350        1030.000                   1.350           0.000            
       1.355        1025.880                   1.355           0.000            
       1.360        1021.760                   1.360           0.000            
       1.365        1017.640                   1.365           0.000            
       1.370        1009.400                   1.370           0.000            
       1.375        1009.400                   1.375           0.000            
       1.380        1009.400                   1.380           0.000            
       1.385        1001.160                   1.385           0.000            
       1.390        1005.280                   1.390           0.000            
       1.395         997.040                   1.395           0.000            
       1.400        1001.160                   1.400           0.000            
       1.405         997.040                   1.405           0.000            
       1.410         988.800                   1.410           0.000            
       1.415         984.680                   1.415           0.000            
       1.420         980.560                   1.420           0.000            
       1.425         984.900                   1.425           0.000            
       1.430         976.860                   1.430           0.000            
       1.435         976.860                   1.435           0.000            
       1.440         964.800                   1.440           0.000            
       1.445         976.860                   1.445           0.000            
       1.450         968.820                   1.450           0.000            
       1.455         964.800                   1.455           0.000            
       1.460         964.800                   1.460           0.000            
       1.465         976.860                   1.465           0.000            
       1.470         976.860                   1.470           0.000            
       1.475         984.900                   1.475           0.000            
       1.480         984.900                   1.480           0.000            
       1.485         996.960                   1.485           0.000            
       1.490         996.960                   1.490           0.000            
       1.495        1005.000                   1.495           0.000            
       1.500        1014.300                   1.500           0.000            
       1.505        1014.300                   1.505           0.000            
       1.510        1018.440                   1.510           0.000            
       1.515        1018.440                   1.515           0.000            
       1.520        1018.440                   1.520           4.980            
       1.525        1022.580                   1.525           7.500            
       1.530        1018.440                   1.530           0.000            
       1.535        1014.300                   1.535           0.000            
       1.540        1014.300                   1.540           0.000            
       1.545        1014.300                   1.545           2.490            
       1.550        1018.440                   1.550           0.000            
       1.555        1035.000                   1.555           7.500            
       1.560        1030.860                   1.560           0.000            
       1.565        1035.000                   1.565           0.000            
       1.570        1035.000                   1.570           0.000            
       1.575        1046.150                   1.575           5.000            
       1.580        1046.150                   1.580           5.000            
       1.585        1046.150                   1.585           0.000            
       1.590        1046.150                   1.590           0.000            
       1.595        1050.420                   1.595           2.500            
       1.600        1058.960                   1.600           0.000            
       1.605        1063.230                   1.605           0.000            
       1.610        1058.960                   1.610           0.000            
       1.615        1063.230                   1.615           0.000            
       1.620        1067.500                   1.620           0.000            
       1.625        1058.960                   1.625           0.000            
       1.630        1063.230                   1.630           0.000            
       1.635        1058.960                   1.635           0.000            
       1.640        1058.960                   1.640           0.000            
       1.645        1050.420                   1.645           0.000            
       1.650        1050.000                   1.650           0.000            
       1.655        1041.600                   1.655           0.000            
       1.660        1037.400                   1.660           0.000            
       1.665        1037.400                   1.665           0.000            
       1.670        1037.400                   1.670           0.000            
       1.675        1033.200                   1.675           0.000            
       1.680        1024.800                   1.680           0.000            
       1.685        1029.000                   1.685           0.000            
       1.690        1024.800                   1.690           0.000            
       1.695        1024.800                   1.695           0.000            
       1.700        1024.800                   1.700           0.000            
       1.705        1016.400                   1.705           0.000            
       1.710        1016.400                   1.710           0.000            
       1.715        1016.400                   1.715           0.000            
       1.720        1016.400                   1.720           0.000            
       1.725        1026.720                   1.725           0.000            
       1.730        1018.440                   1.730           0.000            
       1.735        1022.580                   1.735           0.000            
       1.740        1022.580                   1.740           0.000            
       1.745        1026.720                   1.745           0.000            
       1.750        1022.580                   1.750           0.000            
       1.755        1026.720                   1.755           0.000            
       1.760        1026.720                   1.760           0.000            
       1.765        1026.720                   1.765           0.000            
       1.770        1035.000                   1.770           0.000            
       1.775        1035.000                   1.775           0.000            
       1.780        1030.860                   1.780           0.000            
       1.785        1030.860                   1.785           0.000            
       1.790        1035.000                   1.790           0.000            
       1.795        1035.000                   1.795           0.000            
       1.800        1045.000                   1.800           0.000            
       1.805        1036.640                   1.805           0.000            
       1.810        1036.640                   1.810           0.000            
       1.815        1036.640                   1.815           0.000            
       1.820        1032.460                   1.820           0.000            
       1.825        1036.640                   1.825           0.000            
       1.830        1040.820                   1.830           0.000            
       1.835        1032.460                   1.835           0.000            
       1.840        1032.460                   1.840           0.000            
       1.845        1028.280                   1.845           0.000            
       1.850        1028.280                   1.850           0.000            
       1.855        1032.460                   1.855           0.000            
       1.860        1028.280                   1.860           0.000            
       1.865        1032.460                   1.865           0.000            
       1.870        1032.460                   1.870           0.000            
       1.875        1040.000                   1.875           0.000            
       1.880        1031.680                   1.880           0.000            
       1.885        1031.680                   1.885           0.000            
       1.890        1040.000                   1.890           0.000            
       1.895        1031.680                   1.895           0.000            
       1.900        1031.680                   1.900           0.000            
       1.905        1031.680                   1.905           0.000            
       1.910        1031.680                   1.910           0.000            
       1.915        1027.520                   1.915           0.000            
       1.920        1023.360                   1.920           0.000            
       1.925        1023.360                   1.925           0.000            
       1.930        1031.680                   1.930           0.000            
       1.935        1027.520                   1.935           0.000            
       1.940        1031.680                   1.940           0.000            
       1.945        1031.680                   1.945           0.000            
       1.950        1040.000                   1.950           0.000            
       1.955        1040.000                   1.955           0.000            
       1.960        1031.680                   1.960           0.000            
       1.965        1035.840                   1.965           0.000            
       1.970        1031.680                   1.970           0.000            
       1.975        1027.520                   1.975           0.000            
       1.980        1031.680                   1.980           0.000            
       1.985        1027.520                   1.985           0.000            
       1.990        1023.360                   1.990           0.000            
       1.995        1027.520                   1.995           0.000            
       2.000        1027.520                   2.000           0.000            
       2.005        1027.520                   2.005           0.000            
       2.010        1023.360                   2.010           0.000            
       2.015        1027.520                   2.015           0.000            
       2.020        1027.520                   2.020           0.000            
       2.025        1037.400                   2.025           0.000            
       2.030        1033.200                   2.030           0.000            
       2.035        1045.800                   2.035           0.000            
       2.040        1029.000                   2.040           0.000            
       2.045        1037.400                   2.045           0.000            
       2.050        1037.400                   2.050           0.000            
       2.055        1037.400                   2.055           0.000            
       2.060        1037.400                   2.060           0.000            
       2.065        1041.600                   2.065           0.000            
       2.070        1041.600                   2.070           0.000            
       2.075        1037.400                   2.075           0.000            
       2.080        1041.600                   2.080           0.000            
       2.085        1041.600                   2.085           0.000            
       2.090        1041.600                   2.090           0.000            
       2.095        1050.000                   2.095           0.000            
       2.100        1046.560                   2.100           0.000            
       2.105        1042.340                   2.105           0.000            
       2.110        1042.340                   2.110           0.000            
       2.115        1046.560                   2.115           0.000            
       2.120        1042.340                   2.120           0.000            
       2.125        1055.000                   2.125           0.000            
       2.130        1046.560                   2.130           0.000            
       2.135        1046.560                   2.135           0.000            
       2.140        1050.780                   2.140           0.000            
       2.145        1050.780                   2.145           0.000            
       2.150        1046.560                   2.150           0.000            
       2.155        1046.560                   2.155           0.000            
       2.160        1046.560                   2.160           0.000            
       2.165        1050.780                   2.165           0.000            
       2.170        1055.000                   2.170           0.000            
       2.175        1060.000                   2.175           0.000            
       2.180        1051.520                   2.180           0.000            
       2.185        1051.520                   2.185           0.000            
       2.190        1051.520                   2.190           0.000            
       2.195        1055.760                   2.195           0.000            
       2.200        1055.760                   2.200           0.000            
       2.205        1051.520                   2.205           0.000            
       2.210        1051.520                   2.210           0.000            
       2.215        1051.520                   2.215           0.000            
       2.220        1060.000                   2.220           0.000            
       2.225        1055.760                   2.225           0.000            
       2.230        1051.520                   2.230           0.000            
       2.235        1051.520                   2.235           0.000            
       2.240        1051.520                   2.240           0.000            
       2.245        1051.520                   2.245           0.000            
       2.250        1060.000                   2.250           0.000            
       2.255        1051.520                   2.255           0.000            
       2.260        1043.040                   2.260           0.000            
       2.265        1038.800                   2.265           0.000            
       2.270        1038.800                   2.270           0.000            
       2.275        1034.560                   2.275           0.000            
       2.280        1043.040                   2.280           0.000            
       2.285        1038.800                   2.285           0.000            
       2.290        1043.040                   2.290           0.000            
       2.295        1038.800                   2.295           0.000            
       2.300        1038.800                   2.300           0.000            
       2.305        1038.800                   2.305           0.000            
       2.310        1043.040                   2.310           0.000            
       2.315        1038.800                   2.315           0.000            
       2.320        1038.800                   2.320           0.000            
       2.325        1045.000                   2.325           0.000            
       2.330        1032.460                   2.330           0.000            
       2.335        1036.640                   2.335           0.000            
       2.340        1036.640                   2.340           0.000            
       2.345        1036.640                   2.345           0.000            
       2.350        1036.640                   2.350           0.000            
       2.355        1032.460                   2.355           0.000            
       2.360        1032.460                   2.360           0.000            
       2.365        1028.280                   2.365           0.000            
       2.370        1032.460                   2.370           0.000            
       2.375        1032.460                   2.375           0.000            
       2.380        1024.100                   2.380           0.000            
       2.385        1028.280                   2.385           0.000            
       2.390        1032.460                   2.390           0.000            
       2.395        1028.280                   2.395           0.000            
       2.400        1030.000                   2.400           0.000            
       2.405        1030.000                   2.405           0.000            
       2.410        1025.880                   2.410           0.000            
       2.415        1025.880                   2.415           0.000            
       2.420        1021.760                   2.420           0.000            
       2.425        1021.760                   2.425           0.000            
       2.430        1017.640                   2.430           0.000            
       2.435        1013.520                   2.435           0.000            
       2.440        1025.880                   2.440           0.000            
       2.445        1021.760                   2.445           0.000            
       2.450        1021.760                   2.450           0.000            
       2.455        1021.760                   2.455           0.000            
       2.460        1021.760                   2.460           0.000            
       2.465        1021.760                   2.465           0.000            
       2.470        1021.760                   2.470           0.000            
       2.475        1030.000                   2.475           0.000            
       2.480        1021.760                   2.480           0.000            
       2.485        1021.760                   2.485           0.000            
       2.490        1021.760                   2.490           0.000            
       2.495        1017.640                   2.495           0.000            
       2.500        1021.760                   2.500           0.000            
       2.505        1021.760                   2.505           0.000            
       2.510        1021.760                   2.510           0.000            
       2.515        1021.760                   2.515           0.000            
       2.520        1025.880                   2.520           0.000            
       2.525        1021.760                   2.525           0.000            
       2.530        1025.880                   2.530           0.000            
       2.535        1021.760                   2.535           0.000            
       2.540        1021.760                   2.540           0.000            
       2.545        1025.880                   2.545           0.000            
       2.550        1035.000                   2.550           0.000            
       2.555        1026.720                   2.555           0.000            
       2.560        1026.720                   2.560           0.000            
       2.565        1022.580                   2.565           0.000            
       2.570        1035.000                   2.570           0.000            
       2.575        1026.720                   2.575           0.000            
       2.580        1022.580                   2.580           0.000            
       2.585        1022.580                   2.585           0.000            
       2.590        1026.720                   2.590           0.000            
       2.595        1026.720                   2.595           0.000            
       2.600        1018.440                   2.600           0.000            
       2.605        1022.580                   2.605           0.000            
       2.610        1018.440                   2.610           0.000            
       2.615        1018.440                   2.615           0.000            
       2.620        1014.300                   2.620           0.000            
       2.625        1022.500                   2.625           0.000            
       2.630        1006.140                   2.630           0.000            
       2.635        1006.140                   2.635           0.000            
       2.640        1006.140                   2.640           0.000            
       2.645        1006.140                   2.645           0.000            
       2.650        1010.230                   2.650           0.000            
       2.655        1006.140                   2.655           0.000            
       2.660        1006.140                   2.660           0.000            
       2.665        1010.230                   2.665           0.000            
       2.670        1006.140                   2.670           0.000            
       2.675        1006.140                   2.675           0.000            
       2.680        1006.140                   2.680           0.000            
       2.685        1014.320                   2.685           0.000            
       2.690        1014.320                   2.690           0.000            
       2.695        1014.320                   2.695           0.000            
       2.700        1017.500                   2.700           0.000            
       2.705        1009.360                   2.705           0.000            
       2.710        1009.360                   2.710           0.000            
       2.715        1009.360                   2.715           0.000            
       2.720        1005.290                   2.720           0.000            
       2.725        1005.290                   2.725           0.000            
       2.730        1009.360                   2.730           0.000            
       2.735        1001.220                   2.735           0.000            
       2.740        1009.360                   2.740           0.000            
       2.745        1001.220                   2.745           0.000            
       2.750        1009.360                   2.750           0.000            
       2.755        1001.220                   2.755           0.000            
       2.760        1001.220                   2.760           0.000            
       2.765        1009.360                   2.765           0.000            
       2.770        1005.290                   2.770           0.000            
       2.775        1004.400                   2.775           0.000            
       2.780        1004.400                   2.780           0.000            
       2.785        1012.500                   2.785           0.000            
       2.790        1004.400                   2.790           0.000            
       2.795        1004.400                   2.795           0.000            
       2.800        1004.400                   2.800           0.000            
       2.805        1004.400                   2.805           0.000            
       2.810        1000.350                   2.810           0.000            
       2.815        1004.400                   2.815           0.000            
       2.820        1004.400                   2.820           0.000            
       2.825        1004.400                   2.825           0.000            
       2.830        1012.500                   2.830           0.000            
       2.835        1004.400                   2.835           0.000            
       2.840        1000.350                   2.840           0.000            
       2.845        1004.400                   2.845           0.000            
       2.850        1015.920                   2.850           0.000            
       2.855        1003.680                   2.855           0.000            
       2.860        1003.680                   2.860           0.000            
       2.865        1003.680                   2.865           0.000            
       2.870        1007.760                   2.870           0.000            
       2.875        1011.840                   2.875           0.000            
       2.880        1003.680                   2.880           0.000            
       2.885        1007.760                   2.885           0.000            
       2.890        1003.680                   2.890           0.000            
       2.895        1011.840                   2.895           0.000            
       2.900        1011.840                   2.900           0.000            
       2.905        1007.760                   2.905           0.000            
       2.910        1020.000                   2.910           0.000            
       2.915        1011.840                   2.915           0.000            
       2.920        1020.000                   2.920           0.000            
       2.925        1024.240                   2.925           0.000            
       2.930        1015.980                   2.930           0.000            
       2.935        1024.240                   2.935           0.000            
       2.940        1024.240                   2.940           0.000            
       2.945        1024.240                   2.945           0.000            
       2.950        1024.240                   2.950           0.000            
       2.955        1028.370                   2.955           0.000            
       2.960        1032.500                   2.960           0.000            
       2.965        1024.240                   2.965           0.000            
       2.970        1024.240                   2.970           0.000            
       2.975        1028.370                   2.975           0.000            
       2.980        1032.500                   2.980           0.000            
       2.985        1028.370                   2.985           0.000            
       2.990        1024.240                   2.990           0.000            
       2.995        1028.370                   2.995           0.000            
       3.000        1037.500                   3.000           0.000            
       3.005        1020.900                   3.005           0.000            
       3.010        1025.050                   3.010           0.000            
       3.015        1025.050                   3.015           0.000            
       3.020        1020.900                   3.020           0.000            
       3.025        1016.750                   3.025           0.000            
       3.030        1016.750                   3.030           0.000            
       3.035        1020.900                   3.035           0.000            
       3.040        1020.900                   3.040           0.000            
       3.045        1016.750                   3.045           0.000            
       3.050        1016.750                   3.050           0.000            
       3.055        1012.600                   3.055           0.000            
       3.060        1016.750                   3.060           0.000            
       3.065        1020.900                   3.065           0.000            
       3.070        1016.750                   3.070           0.000            
       3.075        1024.240                   3.075           0.000            
       3.080        1015.980                   3.080           0.000            
       3.085        1020.110                   3.085           0.000            
       3.090        1015.980                   3.090           0.000            
       3.095        1024.240                   3.095           0.000            
       3.100        1015.980                   3.100           0.000            
       3.105        1015.980                   3.105           0.000            
       3.110        1015.980                   3.110           0.000            
       3.115        1015.980                   3.115           2.500            
       3.120        1024.240                   3.120           0.000            
       3.125        1015.980                   3.125           0.000            
       3.130        1028.370                   3.130           0.000            
       3.135        1024.240                   3.135           0.000            
       3.140        1032.500                   3.140           0.000            
       3.145        1032.500                   3.145           0.000            
       3.150        1045.800                   3.150           2.500            
       3.155        1037.400                   3.155           0.000            
       3.160        1041.600                   3.160           0.000            
       3.165        1037.400                   3.165           0.000            
       3.170        1041.600                   3.170           0.000            
       3.175        1037.400                   3.175           2.500            
       3.180        1050.000                   3.180           0.000            
       3.185        1041.600                   3.185           0.000            
       3.190        1045.800                   3.190           0.000            
       3.195        1041.600                   3.195           0.000            
       3.200        1037.400                   3.200           0.000            
       3.205        1041.600                   3.205           0.000            
       3.210        1045.800                   3.210           0.000            
       3.215        1050.000                   3.215           0.000            
       3.220        1045.800                   3.220           0.000            
       3.225        1057.500                   3.225           5.000            
       3.230        1049.040                   3.230           0.000            
       3.235        1049.040                   3.235           0.000            
       3.240        1049.040                   3.240           0.000            
       3.245        1049.040                   3.245           0.000            
       3.250        1049.040                   3.250           0.000            
       3.255        1053.270                   3.255           0.000            
       3.260        1057.500                   3.260           0.000            
       3.265        1053.270                   3.265           0.000            
       3.270        1049.040                   3.270           0.000            
       3.275        1053.270                   3.275           0.000            
       3.280        1049.040                   3.280           0.000            
       3.285        1044.810                   3.285           0.000            
       3.290        1036.350                   3.290           0.000            
       3.295        1036.350                   3.295           0.000            
       3.300        1050.000                   3.300           0.000            
       3.305        1041.600                   3.305           0.000            
       3.310        1037.400                   3.310           0.000            
       3.315        1037.400                   3.315           0.000            
       3.320        1037.400                   3.320           0.000            
       3.325        1037.400                   3.325           0.000            
       3.330        1029.000                   3.330           0.000            
       3.335        1029.000                   3.335           0.000            
       3.340        1024.800                   3.340           0.000            
       3.345        1024.800                   3.345           0.000            
       3.350        1029.000                   3.350           0.000            
       3.355        1029.000                   3.355           0.000            
       3.360        1033.200                   3.360           0.000            
       3.365        1033.200                   3.365           0.000            
       3.370        1037.400                   3.370           0.000            
       3.375        1044.810                   3.375           0.000            
       3.380        1036.350                   3.380           0.000            
       3.385        1036.350                   3.385           0.000            
       3.390        1040.580                   3.390           0.000            
       3.395        1036.350                   3.395           0.000            
       3.400        1044.810                   3.400           0.000            
       3.405        1044.810                   3.405           0.000            
       3.410        1040.580                   3.410           0.000            
       3.415        1049.040                   3.415           0.000            
       3.420        1057.500                   3.420           0.000            
       3.425        1044.810                   3.425           0.000            
       3.430        1044.810                   3.430           0.000            
       3.435        1049.040                   3.435           0.000            
       3.440        1044.810                   3.440           0.000            
       3.445        1044.810                   3.445           0.000            
       3.450        1047.500                   3.450           2.400            
       3.455        1043.310                   3.455           2.400            
       3.460        1047.500                   3.460           0.000            
       3.465        1039.120                   3.465          15.000            
       3.470        1034.930                   3.470          17.400            
       3.475        1034.930                   3.475          22.500            
       3.480        1030.740                   3.480          24.900            
       3.485        1030.740                   3.485          12.450            
       3.490        1022.360                   3.490          19.950            
       3.495        1022.360                   3.495          22.500            
       3.500        1018.170                   3.500          24.900            
       3.505        1022.360                   3.505          27.450            
       3.510        1022.360                   3.510          34.950            
       3.515        1009.790                   3.515          37.500            
       3.520        1005.600                   3.520          34.950            
       3.525        1017.500                   3.525          37.410            
       3.530        1001.220                   3.530          39.730            
       3.535         997.150                   3.535          39.730            
       3.540         997.150                   3.540          44.950            
       3.545         993.080                   3.545          34.800            
       3.550         993.080                   3.550          42.340            
       3.555         997.150                   3.555          47.270            
       3.560         993.080                   3.560          52.490            
       3.565         993.080                   3.565          57.420            
       3.570         993.080                   3.570          59.740            
       3.575         997.150                   3.575          62.350            
       3.580         993.080                   3.580          62.350            
       3.585         997.150                   3.585          69.890            
       3.590         993.080                   3.590          67.280            
       3.595         997.150                   3.595          72.500            
       3.600        1002.500                   3.600          80.000            
       3.605        1002.500                   3.605          74.880            
       3.610         994.480                   3.610          74.880            
       3.615         994.480                   3.615          67.200            
       3.620         994.480                   3.620          69.760            
       3.625         994.480                   3.625          72.320            
       3.630         998.490                   3.630          72.320            
       3.635         994.480                   3.635          67.200            
       3.640         986.460                   3.640          69.760            
       3.645         986.460                   3.645          64.960            
       3.650         982.450                   3.650          67.200            
       3.655         982.450                   3.655          62.400            
       3.660         982.450                   3.660          62.400            
       3.665         982.450                   3.665          62.400            
       3.670         978.440                   3.670          62.400            
       3.675         982.500                   3.675          62.500            
       3.680         974.640                   3.680          57.500            
       3.685         962.850                   3.685          52.500            
       3.690         974.640                   3.690          52.500            
       3.695         966.780                   3.695          50.000            
       3.700         966.780                   3.700          47.500            
       3.705         966.780                   3.705          42.500            
       3.710         966.780                   3.710          47.500            
       3.715         966.780                   3.715          45.000            
       3.720         962.850                   3.720          45.000            
       3.725         958.920                   3.725          45.000            
       3.730         962.850                   3.730          37.500            
       3.735         958.920                   3.735          35.000            
       3.740         962.850                   3.740          40.000            
       3.745         962.850                   3.745          35.000            
       3.750         970.000                   3.750          40.000            
       3.755         954.480                   3.755          34.880            
       3.760         954.480                   3.760          29.920            
       3.765         958.360                   3.765          29.920            
       3.770         954.480                   3.770          29.920            
       3.775         954.480                   3.775          24.960            
       3.780         954.480                   3.780          24.960            
       3.785         954.480                   3.785          22.400            
       3.790         958.360                   3.790          20.000            
       3.795         954.480                   3.795          22.400            
       3.800         950.600                   3.800          22.400            
       3.805         958.360                   3.805          20.000            
       3.810         946.720                   3.810          22.400            
       3.815         954.480                   3.815          20.000            
       3.820         954.480                   3.820          22.400            
       3.825         967.140                   3.825          24.970            
       3.830         959.180                   3.830          22.440            
       3.835         967.140                   3.835          19.910            
       3.840         971.120                   3.840          14.960            
       3.845         971.120                   3.845          19.910            
       3.850         971.120                   3.850          14.960            
       3.855         971.120                   3.855          14.960            
       3.860         983.060                   3.860          14.960            
       3.865         991.020                   3.865          19.910            
       3.870         991.020                   3.870          27.500            
       3.875         991.020                   3.875          19.910            
       3.880         987.040                   3.880          19.910            
       3.885         995.000                   3.885          19.910            
       3.890         991.020                   3.890          22.440            
       3.895         991.020                   3.895          14.960            
       3.900         998.490                   3.900          27.370            
       3.905         994.480                   3.905          24.990            
       3.910         994.480                   3.910          27.370            
       3.915         994.480                   3.915          27.370            
       3.920         994.480                   3.920          27.370            
       3.925         994.480                   3.925          32.470            
       3.930        1002.500                   3.930          37.400            
       3.935         990.470                   3.935          34.850            
       3.940         990.470                   3.940          32.470            
       3.945         994.480                   3.945          37.400            
       3.950         986.460                   3.950          39.950            
       3.955         986.460                   3.955          39.950            
       3.960         994.480                   3.960          42.500            
       3.965         982.450                   3.965          42.500            
       3.970         982.450                   3.970          42.500            
       3.975         990.000                   3.975          55.000            
       3.980         982.080                   3.980          55.000            
       3.985         982.080                   3.985          47.500            
       3.990         978.120                   3.990          55.000            
       3.995         974.160                   3.995          52.500            
       4.000         970.200                   4.000          50.000            
       4.005         974.160                   4.005          55.000            
       4.010         970.200                   4.010          52.500            
       4.015         970.200                   4.015          57.500            
       4.020         974.160                   4.020          62.500            
       4.025         974.160                   4.025          60.000            
       4.030         974.160                   4.030          57.500            
       4.035         974.160                   4.035          55.000            
       4.040         974.160                   4.040          52.500            
       4.045         974.160                   4.045          52.500            
       4.050         980.460                   4.050          57.500            
       4.055         988.840                   4.055          47.380            
       4.060         976.270                   4.060          44.850            
       4.065         984.650                   4.065          39.790            
       4.070         988.840                   4.070          32.430            
       4.075         997.220                   4.075          32.430            
       4.080         993.030                   4.080          24.840            
       4.085        1005.600                   4.085          14.950            
       4.090        1009.790                   4.090          14.950            
       4.095        1013.980                   4.095           9.890            
       4.100        1022.360                   4.100           4.830            
       4.105        1034.930                   4.105           2.300            
       4.110        1034.930                   4.110           4.830            
       4.115        1039.120                   4.115           0.000            
       4.120        1047.500                   4.120           0.000            
       4.125        1057.540                   4.125          10.000            
       4.130        1070.650                   4.130           0.000            
       4.135        1057.540                   4.135           0.000            
       4.140        1066.280                   4.140           2.480            
       4.145        1066.280                   4.145           0.000            
       4.150        1075.020                   4.150           0.000            
       4.155        1070.650                   4.155           0.000            
       4.160        1079.390                   4.160           0.000            
       4.165        1079.390                   4.165          10.000            
       4.170        1079.390                   4.170           0.000            
       4.175        1079.390                   4.175           2.480            
       4.180        1083.760                   4.180           2.480            
       4.185        1083.760                   4.185           0.000            
       4.190        1083.760                   4.190           0.000            
       4.195        1092.500                   4.195           5.000            
       4.200        1082.500                   4.200           7.500            
       4.205        1078.170                   4.205           0.000            
       4.210        1078.170                   4.210           0.000            
       4.215        1069.510                   4.215           2.490            
       4.220        1073.840                   4.220           0.000            
       4.225        1073.840                   4.225           7.500            
       4.230        1069.510                   4.230           0.000            
       4.235        1065.180                   4.235           2.490            
       4.240        1060.850                   4.240           0.000            
       4.245        1056.520                   4.245           0.000            
       4.250        1052.190                   4.250           0.000            
       4.255        1060.850                   4.255           2.490            
       4.260        1052.190                   4.260           0.000            
       4.265        1043.530                   4.265           0.000            
       4.270        1047.860                   4.270           0.000            
       4.275        1050.000                   4.275           7.500            
       4.280        1041.600                   4.280           2.490            
       4.285        1041.600                   4.285           2.490            
       4.290        1037.400                   4.290           2.490            
       4.295        1037.400                   4.295           0.000            
       4.300        1029.000                   4.300           0.000            
       4.305        1033.200                   4.305           0.000            
       4.310        1029.000                   4.310           0.000            
       4.315        1029.000                   4.315           2.490            
       4.320        1033.200                   4.320           0.000            
       4.325        1024.800                   4.325           0.000            
       4.330        1024.800                   4.330           0.000            
       4.335        1020.600                   4.335           0.000            
       4.340        1024.800                   4.340           0.000            
       4.345        1016.400                   4.345           0.000            
       4.350        1027.500                   4.350           0.000            
       4.355        1019.280                   4.355           0.000            
       4.360        1019.280                   4.360           0.000            
       4.365        1019.280                   4.365           0.000            
       4.370        1019.280                   4.370           0.000            
       4.375        1019.280                   4.375           0.000            
       4.380        1019.280                   4.380           0.000            
       4.385        1015.170                   4.385           0.000            
       4.390        1019.280                   4.390           0.000            
       4.395        1019.280                   4.395           0.000            
       4.400        1015.170                   4.400           0.000            
       4.405        1015.170                   4.405           0.000            
       4.410        1015.170                   4.410           0.000            
       4.415        1019.280                   4.415           0.000            
       4.420        1019.280                   4.420           0.000            
       4.425        1024.240                   4.425           0.000            
       4.430        1024.240                   4.430           0.000            
       4.435        1024.240                   4.435           0.000            
       4.440        1024.240                   4.440           0.000            
       4.445        1024.240                   4.445           0.000            
       4.450        1024.240                   4.450           0.000            
       4.455        1020.110                   4.455           0.000            
       4.460        1024.240                   4.460           0.000            
       4.465        1024.240                   4.465           0.000            
       4.470        1032.500                   4.470           0.000            
       4.475        1024.240                   4.475           0.000            
       4.480        1020.110                   4.480           0.000            
       4.485        1024.240                   4.485           0.000            
       4.490        1015.980                   4.490           0.000            
       4.495        1011.850                   4.495           0.000            
       4.500        1022.500                   4.500           0.000            
       4.505        1014.320                   4.505           0.000            
       4.510        1014.320                   4.510           0.000            
       4.515        1006.140                   4.515           0.000            
       4.520        1006.140                   4.520           0.000            
       4.525        1006.140                   4.525           0.000            
       4.530        1006.140                   4.530           0.000            
       4.535        1002.050                   4.535           0.000            
       4.540         997.960                   4.540           0.000            
       4.545         993.870                   4.545           0.000            
       4.550         989.780                   4.550           0.000            
       4.555         985.690                   4.555           0.000            
       4.560         989.780                   4.560           0.000            
       4.565         981.600                   4.565           0.000            
       4.570         973.420                   4.570           0.000            
       4.575         975.200                   4.575           0.000            
       4.580         962.480                   4.580           0.000            
       4.585         962.480                   4.585           0.000            
       4.590         962.480                   4.590           0.000            
       4.595         970.960                   4.595           0.000            
       4.600         983.680                   4.600           0.000            
       4.605        1004.880                   4.605           0.000            
       4.610        1013.360                   4.610           0.000            
       4.615        1021.840                   4.615           0.000            
       4.620        1034.560                   4.620           0.000            
       4.625        1047.280                   4.625           0.000            
       4.630        1051.520                   4.630           0.000            
       4.635        1055.760                   4.635           0.000            
       4.640        1055.760                   4.640           0.000            
       4.645        1060.000                   4.645           0.000            
       4.650        1065.000                   4.650           0.000            
       4.655        1056.480                   4.655           0.000            
       4.660        1052.220                   4.660           0.000            
       4.665        1052.220                   4.665           0.000            
       4.670        1043.700                   4.670           0.000            
       4.675        1047.960                   4.675           0.000            
       4.680        1047.960                   4.680           0.000            
       4.685        1043.700                   4.685           0.000            
       4.690        1052.220                   4.690           0.000            
       4.695        1043.700                   4.695           0.000            
       4.700        1039.440                   4.700           0.000            
       4.705        1043.700                   4.705           0.000            
       4.710        1039.440                   4.710           0.000            
       4.715        1026.660                   4.715           0.000            
       4.720        1026.660                   4.720           0.000            
       4.725        1027.500                   4.725           0.000            
       4.730        1011.060                   4.730           0.000            
       4.735         998.730                   4.735           0.000            
       4.740         994.620                   4.740           0.000            
       4.745         986.400                   4.745           0.000            
       4.750         982.290                   4.750           0.000            
       4.755         969.960                   4.755           0.000            
       4.760         969.960                   4.760           0.000            
       4.765         969.960                   4.765           0.000            
       4.770         957.630                   4.770           0.000            
       4.775         949.410                   4.775           0.000            
       4.780         949.410                   4.780           0.000            
       4.785         941.190                   4.785           0.000            
       4.790         941.190                   4.790           0.000            
       4.795         945.300                   4.795           0.000            
       4.800         951.220                   4.800           0.000            
       4.805         935.300                   4.805           0.000            
       4.810         939.280                   4.810           0.000            
       4.815         939.280                   4.815           0.000            
       4.820         939.280                   4.820           0.000            
       4.825         935.300                   4.825           0.000            
       4.830         931.320                   4.830           0.000            
       4.835         931.320                   4.835           0.000            
       4.840         939.280                   4.840           0.000            
       4.845         943.260                   4.845           0.000            
       4.850         955.200                   4.850           0.000            
       4.855         967.140                   4.855           0.000            
       4.860         975.100                   4.860           0.000            
       4.865         987.040                   4.865           0.000            
       4.870         995.000                   4.870           0.000            
       4.875         999.570                   4.875           0.000            
       4.880         999.570                   4.880           0.000            
       4.885         999.570                   4.885           0.000            
       4.890        1003.860                   4.890           0.000            
       4.895        1003.860                   4.895           0.000            
       4.900        1012.440                   4.900           0.000            
       4.905        1012.440                   4.905           0.000            
       4.910        1021.020                   4.910           0.000            
       4.915        1021.020                   4.915           0.000            
       4.920        1033.890                   4.920           0.000            
       4.925        1042.470                   4.925           0.000            
       4.930        1051.050                   4.930           0.000            
       4.935        1051.050                   4.935           0.000            
       4.940        1059.630                   4.940           0.000            
       4.945        1072.500                   4.945           0.000            
       4.950        1085.110                   4.950           0.000            
       4.955        1094.930                   4.955           0.000            
       4.960        1094.930                   4.960           0.000            
       4.965        1109.660                   4.965           0.000            
       4.970        1114.570                   4.970           0.000            
       4.975        1119.480                   4.975           0.000            
       4.980        1124.390                   4.980           0.000            
       4.985        1134.210                   4.985           0.000            
       4.990        1144.030                   4.990           0.000            
       4.995        1153.850                   4.995           0.000            
       5.000        1158.760                   5.000           0.000            
       5.005        1173.490                   5.005           0.000            
       5.010        1183.310                   5.010           0.000            
       5.015        1202.950                   5.015           0.000            
       5.020        1227.500                   5.020           0.000            
       5.025        1250.310                   5.025           0.000            
       5.030        1273.790                   5.030           0.000            
       5.035        1297.270                   5.035           0.000            
       5.040        1320.750                   5.040           0.000            
       5.045        1344.230                   5.045           0.000            
       5.050        1361.840                   5.050           0.000            
       5.055        1379.450                   5.055           0.000            
       5.060        1402.930                   5.060           0.000            
       5.065        1408.800                   5.065           0.000            
       5.070        1432.280                   5.070           0.000            
       5.075        1438.150                   5.075           0.000            
       5.080        1449.890                   5.080           0.000            
       5.085        1461.630                   5.085           0.000            
       5.090        1455.760                   5.090           0.000            
       5.095        1467.500                   5.095           0.000            
       5.100        1481.080                   5.100           0.000            
       5.105        1481.080                   5.105           0.000            
       5.110        1493.220                   5.110           0.000            
       5.115        1499.290                   5.115           0.000            
       5.120        1511.430                   5.120           0.000            
       5.125        1517.500                   5.125           0.000            
       5.130        1517.500                   5.130           0.000            
       5.135        1511.430                   5.135           0.000            
       5.140        1499.290                   5.140           0.000            
       5.145        1493.220                   5.145           0.000            
       5.150        1468.940                   5.150           0.000            
       5.155        1450.730                   5.155           0.000            
       5.160        1426.450                   5.160           0.000            
       5.165        1396.100                   5.165           0.000            
       5.170        1359.680                   5.170           0.000            
       5.175        1335.000                   5.175           0.000            
       5.180        1286.940                   5.180           0.000            
       5.185        1260.240                   5.185           0.000            
       5.190        1233.540                   5.190           0.000            
       5.195        1206.840                   5.195           0.000            
       5.200        1164.120                   5.200           0.000            
       5.205        1132.080                   5.205           0.000            
       5.210        1089.360                   5.210           0.000            
       5.215        1057.320                   5.215           0.000            
       5.220        1019.940                   5.220           0.000            
       5.225         977.220                   5.225           0.000            
       5.230         929.160                   5.230           0.000            
       5.235         886.440                   5.235           0.000            
       5.240         843.720                   5.240           0.000            
       5.245         790.320                   5.245           0.000            
       5.250         745.000                   5.250           0.000            
       5.255         685.400                   5.255           0.000            
       5.260         631.760                   5.260           0.000            
       5.265         575.140                   5.265           0.000            
       5.270         521.500                   5.270           0.000            
       5.275         464.880                   5.275           0.000            
       5.280         402.300                   5.280           0.000            
       5.285         345.680                   5.285           0.000            
       5.290         292.040                   5.290           0.000            
       5.295         238.400                   5.295           0.000            
       5.300         193.700                   5.300           0.000            
       5.305         157.940                   5.305           0.000            
       5.310         125.160                   5.310           0.000            
       5.315          95.360                   5.315           0.000            
       5.320          71.520                   5.320           0.000            
       5.325          37.500                   5.325           0.000            
       5.330          12.450                   5.330           0.000            
       5.335           4.950                   5.335           0.000            
       5.340           7.500                   5.340           0.000            
       5.345           2.400                   5.345           0.000            
       5.350           2.400                   5.350           0.000            
       5.355           2.400                   5.355           0.000            
       5.360           0.000                   5.360           0.000            
       5.365           4.950                   5.365           0.000            
       5.370           0.000                   5.370           0.000            
       5.375           0.000                   5.375           0.000            
       5.380           0.000                   5.380           0.000            
       5.385           2.400                   5.385           0.000            
       5.390           0.000                   5.390           0.000            
       5.395           4.950                   5.395           0.000            
       5.400           0.000                   5.400           0.000            
       5.405           0.000                   5.405           0.000            
       5.410           0.000                   5.410           0.000            
       5.415           0.000                   5.415           0.000            
       5.420           0.000                   5.420           0.000            
       5.425           0.000                   5.425           0.000            
       5.430           0.000                   5.430           0.000            
       5.435           0.000                   5.435           0.000            
       5.440           0.000                   5.440           0.000            
       5.445           0.000                   5.445           0.000            
       5.450           0.000                   5.450           0.000            
       5.455           0.000                   5.455           0.000            
       5.460           0.000                   5.460           0.000            
       5.465           0.000                   5.465           0.000            
       5.470           0.000                   5.470           0.000            
       5.475           0.000                   5.475           0.000            
       5.480           0.000                   5.480           0.000            
       5.485           0.000                   5.485           0.000            
       5.490           0.000                   5.490           0.000            
       5.495           0.000                   5.495           0.000            
       5.500           0.000                   5.500           0.000            
       5.505           0.000                   5.505           0.000            
       5.510           0.000                   5.510           0.000            
       5.515           0.000                   5.515           0.000            
       5.520          15.420                   5.520           0.000            
       5.525         287.840                   5.525           0.000            
       5.530         966.320                   5.530           0.000            
       5.535        1285.000                   5.535           0.000            
       5.540         848.100                   5.540           2.500            
       5.545         868.660                   5.545           2.500            
       5.550         971.850                   5.550          12.500            
       5.555        1191.300                   5.555           7.500            
       5.560        1525.700                   5.560           2.500            
       5.565        1922.800                   5.565           5.000            
       5.570        2257.200                   5.570           2.500            
       5.575        2476.650                   5.575           7.500            
       5.580        2612.500                   5.580           7.500            
       5.585        2560.250                   5.585           7.500            
       5.590        2434.850                   5.590           5.000            
       5.595        2309.450                   5.595          10.000            
       5.600        2225.850                   5.600           2.500            
       5.605        2173.600                   5.605           5.000            
       5.610        2142.250                   5.610           2.500            
       5.615        2100.450                   5.615           5.000            
       5.620        2090.000                   5.620           2.500            
       5.625        2052.500                   5.625          12.500            
       5.630        1978.610                   5.630           2.500            
       5.635        1904.720                   5.635           0.000            
       5.640        1830.830                   5.640           5.000            
       5.645        1756.940                   5.645           0.000            
       5.650        1691.260                   5.650           0.000            
       5.655        1609.160                   5.655           0.000            
       5.660        1543.480                   5.660           0.000            
       5.665        1494.220                   5.665           0.000            
       5.670        1469.590                   5.670           0.000            
       5.675        1486.010                   5.675           0.000            
       5.680        1494.220                   5.680           0.000            
       5.685        1510.640                   5.685           0.000            
       5.690        1535.270                   5.690           0.000            
       5.695        1551.690                   5.695           0.000            
       5.700        1587.600                   5.700           0.000            
       5.705        1607.040                   5.705           0.000            
       5.710        1620.000                   5.710           0.000            
       5.715        1620.000                   5.715           0.000            
       5.720        1607.040                   5.720           0.000            
       5.725        1587.600                   5.725           0.000            
       5.730        1568.160                   5.730           0.000            
       5.735        1535.760                   5.735           0.000            
       5.740        1509.840                   5.740           0.000            
       5.745        1496.880                   5.745           0.000            
       5.750        1483.920                   5.750           0.000            
       5.755        1490.400                   5.755           0.000            
       5.760        1477.440                   5.760           0.000            
       5.765        1490.400                   5.765           0.000            
       5.770        1496.880                   5.770           0.000            
       5.775        1511.430                   5.775           0.000            
       5.780        1517.500                   5.780           0.000            
       5.785        1511.430                   5.785           0.000            
       5.790        1511.430                   5.790           0.000            
       5.795        1505.360                   5.795           0.000            
       5.800        1493.220                   5.800           0.000            
       5.805        1481.080                   5.805           0.000            
       5.810        1462.870                   5.810           0.000            
       5.815        1444.660                   5.815           0.000            
       5.820        1420.380                   5.820           0.000            
       5.825        1402.170                   5.825           0.000            
       5.830        1377.890                   5.830           0.000            
       5.835        1365.750                   5.835           0.000            
       5.840        1359.680                   5.840           0.000            
       5.845        1353.610                   5.845           0.000            
       5.850        1352.500                   5.850           0.000            
       5.855        1347.090                   5.855           0.000            
       5.860        1336.270                   5.860           0.000            
       5.865        1336.270                   5.865           0.000            
       5.870        1336.270                   5.870           0.000            
       5.875        1341.680                   5.875           0.000            
       5.880        1341.680                   5.880           0.000            
       5.885        1341.680                   5.885           0.000            
       5.890        1330.860                   5.890           0.000            
       5.895        1330.860                   5.895           0.000            
       5.900        1325.450                   5.900           0.000            
       5.905        1325.450                   5.905           0.000            
       5.910        1309.220                   5.910           0.000            
       5.915        1303.810                   5.915           0.000            
       5.920        1298.400                   5.920           0.000            
       5.925        1297.500                   5.925           0.000            
       5.930        1281.930                   5.930           0.000            
       5.935        1281.930                   5.935           0.000            
       5.940        1271.550                   5.940           0.000            
       5.945        1266.360                   5.945           0.000            
       5.950        1255.980                   5.950           0.000            
       5.955        1255.980                   5.955           0.000            
       5.960        1240.410                   5.960           0.000            
       5.965        1235.220                   5.965           0.000            
       5.970        1235.220                   5.970           0.000            
       5.975        1224.840                   5.975           0.000            
       5.980        1224.840                   5.980           0.000            
       5.985        1224.840                   5.985           0.000            
       5.990        1219.650                   5.990           0.000            
       5.995        1219.650                   5.995           0.000            
       6.000        1217.500                   6.000           0.000            
       6.005        1202.890                   6.005           0.000            
       6.010        1202.890                   6.010           0.000            
       6.015        1198.020                   6.015           0.000            
       6.020        1193.150                   6.020           0.000            
       6.025        1188.280                   6.025           0.000            
       6.030        1183.410                   6.030           0.000            
       6.035        1183.410                   6.035           0.000            
       6.040        1178.540                   6.040           0.000            
       6.045        1168.800                   6.045           0.000            
       6.050        1168.800                   6.050           0.000            
       6.055        1168.800                   6.055           0.000            
       6.060        1168.800                   6.060           0.000            
       6.065        1163.930                   6.065           0.000            
       6.070        1163.930                   6.070           0.000            
       6.075        1167.500                   6.075           0.000            
       6.080        1153.490                   6.080           0.000            
       6.085        1153.490                   6.085           0.000            
       6.090        1153.490                   6.090           0.000            
       6.095        1144.150                   6.095           0.000            
       6.100        1144.150                   6.100           0.000            
       6.105        1134.810                   6.105           0.000            
       6.110        1134.810                   6.110           0.000            
       6.115        1125.470                   6.115           0.000            
       6.120        1125.470                   6.120           0.000            
       6.125        1120.800                   6.125           0.000            
       6.130        1116.130                   6.130           0.000            
       6.135        1116.130                   6.135           0.000            
       6.140        1116.130                   6.140           0.000            
       6.145        1111.460                   6.145           0.000            
       6.150        1115.000                   6.150           0.000            
       6.155        1101.620                   6.155           0.000            
       6.160        1088.240                   6.160           0.000            
       6.165        1088.240                   6.165           0.000            
       6.170        1083.780                   6.170           0.000            
       6.175        1079.320                   6.175           0.000            
       6.180        1074.860                   6.180           0.000            
       6.185        1061.480                   6.185           0.000            
       6.190        1057.020                   6.190           0.000            
       6.195        1048.100                   6.195           0.000            
       6.200        1043.640                   6.200           0.000            
       6.205        1039.180                   6.205           0.000            
       6.210        1034.720                   6.210           0.000            
       6.215        1030.260                   6.215           0.000            
       6.220        1025.800                   6.220           0.000            
       6.225        1035.000                   6.225           0.000            
       6.230        1018.440                   6.230           0.000            
       6.235        1018.440                   6.235           0.000            
       6.240        1018.440                   6.240           0.000            
       6.245        1018.440                   6.245           0.000            
       6.250        1014.300                   6.250           0.000            
       6.255        1010.160                   6.255           0.000            
       6.260        1010.160                   6.260           0.000            
       6.265        1006.020                   6.265           0.000            
       6.270        1010.160                   6.270           0.000            
       6.275        1006.020                   6.275           0.000            
       6.280        1001.880                   6.280           0.000            
       6.285         993.600                   6.285           0.000            
       6.290         993.600                   6.290           0.000            
       6.295         989.460                   6.295           0.000            
       6.300         997.500                   6.300           0.000            
       6.305         989.520                   6.305           0.000            
       6.310         989.520                   6.310           0.000            
       6.315         981.540                   6.315           0.000            
       6.320         985.530                   6.320           0.000            
       6.325         981.540                   6.325           0.000            
       6.330         977.550                   6.330           0.000            
       6.335         981.540                   6.335           0.000            
       6.340         981.540                   6.340           0.000            
       6.345         981.540                   6.345           0.000            
       6.350         973.560                   6.350           0.000            
       6.355         973.560                   6.355           0.000            
       6.360         973.560                   6.360           0.000            
       6.365         973.560                   6.365           0.000            
       6.370         969.570                   6.370           0.000            
       6.375         980.000                   6.375           0.000            
       6.380         964.320                   6.380           0.000            
       6.385         968.240                   6.385           0.000            
       6.390         956.480                   6.390           0.000            
       6.395         960.400                   6.395           0.000            
       6.400         956.480                   6.400           0.000            
       6.405         956.480                   6.405           0.000            
       6.410         956.480                   6.410           0.000            
       6.415         948.640                   6.415           0.000            
       6.420         948.640                   6.420           0.000            
       6.425         944.720                   6.425           0.000            
       6.430         944.720                   6.430           0.000            
       6.435         944.720                   6.435           0.000            
       6.440         936.880                   6.440           0.000            
       6.445         936.880                   6.445           0.000            
       6.450         942.500                   6.450           0.000            
       6.455         934.960                   6.455           0.000            
       6.460         934.960                   6.460           0.000            
       6.465         931.190                   6.465           0.000            
       6.470         923.650                   6.470           0.000            
       6.475         916.110                   6.475           0.000            
       6.480         916.110                   6.480           0.000            
       6.485         908.570                   6.485           0.000            
       6.490         904.800                   6.490           0.000            
       6.495         901.030                   6.495           0.000            
       6.500         889.720                   6.500          22.440            
       6.505         889.720                   6.505          62.040            
       6.510         874.640                   6.510         104.940            
       6.515         874.640                   6.515         129.360            
       6.520         852.020                   6.520         165.000            
       6.525         845.000                   6.525         203.550            
       6.530         814.580                   6.530         234.600            
       6.535         807.820                   6.535         286.350            
       6.540         784.160                   6.540         369.150            
       6.545         760.500                   6.545         441.600            
       6.550         726.700                   6.550         524.400            
       6.555         709.800                   6.555         589.950            
       6.560         676.000                   6.560         652.050            
       6.565         642.200                   6.565         700.350            
       6.570         611.780                   6.570         741.750            
       6.575         581.360                   6.575         776.250            
       6.580         544.180                   6.580         807.300            
       6.585         510.380                   6.585         834.900            
       6.590         476.580                   6.590         852.150            
       6.595         436.020                   6.595         862.500            
       6.600         417.500                   6.600         877.800            
       6.605         377.420                   6.605         877.800            
       6.610         344.020                   6.610         894.600            
       6.615         312.290                   6.615         903.000            
       6.620         283.900                   6.620         907.200            
       6.625         253.840                   6.625         919.800            
       6.630         228.790                   6.630         928.200            
       6.635         203.740                   6.635         949.200            
       6.640         178.690                   6.640         953.400            
       6.645         163.660                   6.645         974.400            
       6.650         136.940                   6.650         991.200            
       6.655         116.900                   6.655        1003.800            
       6.660         101.870                   6.660        1016.400            
       6.665          86.840                   6.665        1041.600            
       6.670          63.460                   6.670        1050.000            
       6.675          40.000                   6.675        1065.600            
       6.680          22.400                   6.680        1074.480            
       6.685           7.360                   6.685        1083.360            
       6.690           0.000                   6.690        1092.240            
       6.695           0.000                   6.695        1092.240            
       6.700           0.000                   6.700        1105.560            
       6.705           0.000                   6.705        1110.000            
       6.710           0.000                   6.710        1110.000            
       6.715           0.000                   6.715        1101.120            
       6.720           0.000                   6.720        1096.680            
       6.725           0.000                   6.725        1087.800            
       6.730           0.000                   6.730        1074.480            
       6.735           0.000                   6.735        1070.040            
       6.740           0.000                   6.740        1056.720            
       6.745           0.000                   6.745        1052.280            
       6.750           0.000                   6.750        1045.000            
       6.755           0.000                   6.755        1024.100            
       6.760           0.000                   6.760        1015.740            
       6.765           0.000                   6.765        1011.560            
       6.770           0.000                   6.770         999.020            
       6.775           0.000                   6.775         990.660            
       6.780           0.000                   6.780         994.840            
       6.785           0.000                   6.785         994.840            
       6.790           0.000                   6.790         982.300            
       6.795           0.000                   6.795         986.480            
       6.800           0.000                   6.800         986.480            
       6.805           0.000                   6.805         990.660            
       6.810           0.000                   6.810         986.480            
       6.815           0.000                   6.815         994.840            
       6.820           0.000                   6.820         990.660            
       6.825           0.000                   6.825         998.760            
       6.830           0.000                   6.830         998.760            
       6.835           0.000                   6.835        1002.820            
       6.840           0.000                   6.840        1006.880            
       6.845           0.000                   6.845         998.760            
       6.850           0.000                   6.850         998.760            
       6.855           0.000                   6.855         998.760            
       6.860           0.000                   6.860         998.760            
       6.865           0.000                   6.865        1006.880            
       6.870           0.000                   6.870         998.760            
       6.875           0.000                   6.875         998.760            
       6.880           0.000                   6.880         998.760            
       6.885           0.000                   6.885        1006.880            
       6.890           0.000                   6.890        1006.880            
       6.895           0.000                   6.895        1015.000            
       6.900           0.000                   6.900        1017.160            
       6.905           0.000                   6.905        1017.160            
       6.910           0.000                   6.910        1017.160            
       6.915           0.000                   6.915        1021.470            
       6.920           0.000                   6.920        1030.090            
       6.925           0.000                   6.925        1034.400            
       6.930           0.000                   6.930        1034.400            
       6.935           0.000                   6.935        1047.330            
       6.940           0.000                   6.940        1051.640            
       6.945           0.000                   6.945        1051.640            
       6.950           0.000                   6.950        1060.260            
       6.955           0.000                   6.955        1064.570            
       6.960           0.000                   6.960        1068.880            
       6.965           0.000                   6.965        1073.190            
       6.970           0.000                   6.970        1077.500            
       6.975           0.000                   6.975        1080.450            
       6.980           0.000                   6.980        1076.040            
       6.985           0.000                   6.985        1084.860            
       6.990           0.000                   6.990        1089.270            
       6.995           0.000                   6.995        1093.680            
       7.000           0.000                   7.000        1089.270            
       7.005           0.000                   7.005        1093.680            
       7.010           0.000                   7.010        1093.680            
       7.015           0.000                   7.015        1102.500            
       7.020           0.000                   7.020        1093.680            
       7.025           0.000                   7.025        1093.680            
       7.030           0.000                   7.030        1093.680            
       7.035           0.000                   7.035        1084.860            
       7.040           0.000                   7.040        1089.270            
       7.045           0.000                   7.045        1084.860            
       7.050           0.000                   7.050        1085.000            
       7.055           0.000                   7.055        1076.320            
       7.060           0.000                   7.060        1071.980            
       7.065           0.000                   7.065        1058.960            
       7.070           0.000                   7.070        1058.960            
       7.075           0.000                   7.075        1054.620            
       7.080           0.000                   7.080        1050.280            
       7.085           0.000                   7.085        1045.940            
       7.090           0.000                   7.090        1037.260            
       7.095           0.000                   7.095        1028.580            
       7.100           0.000                   7.100        1028.580            
       7.105           0.000                   7.105        1028.580            
       7.110           0.000                   7.110        1015.560            
       7.115           0.000                   7.115        1019.900            
       7.120           0.000                   7.120        1011.220            
       7.125           0.000                   7.125        1017.500            
       7.130           0.000                   7.130        1001.220            
       7.135           0.000                   7.135        1001.220            
       7.140           0.000                   7.140         993.080            
       7.145           0.000                   7.145         989.010            
       7.150           0.000                   7.150         997.150            
       7.155           0.000                   7.155         984.940            
       7.160           0.000                   7.160         984.940            
       7.165           0.000                   7.165         984.940            
       7.170           0.000                   7.170         984.940            
       7.175           0.000                   7.175         976.800            
       7.180           0.000                   7.180         976.800            
       7.185           0.000                   7.185         976.800            
       7.190           0.000                   7.190         976.800            
       7.195           0.000                   7.195         976.800            
       7.200           0.000                   7.200         978.570            
       7.205           0.000                   7.205         974.640            
       7.210           0.000                   7.210         982.500            
       7.215           0.000                   7.215         978.570            
       7.220           0.000                   7.220         982.500            
       7.225           0.000                   7.225         978.570            
       7.230           0.000                   7.230         974.640            
       7.235           0.000                   7.235         974.640            
       7.240           0.000                   7.240         970.710            
       7.245           0.000                   7.245         962.850            
       7.250           0.000                   7.250         954.990            
       7.255           0.000                   7.255         951.060            
       7.260           0.000                   7.260         947.130            
       7.265           0.000                   7.265         939.270            
       7.270           0.000                   7.270         935.340            
       7.275           0.000                   7.275         935.000            
       7.280           0.000                   7.280         923.780            
       7.285           0.000                   7.285         912.560            
       7.290           0.000                   7.290         912.560            
       7.295           0.000                   7.295         908.820            
       7.300           0.000                   7.300         901.340            
       7.305           0.000                   7.305         897.600            
       7.310           0.000                   7.310         893.860            
       7.315           0.000                   7.315         886.380            
       7.320           0.000                   7.320         867.680            
       7.325           7.200                   7.325         867.680            
       7.330          30.000                   7.330         856.460            
       7.335          57.200                   7.335         841.500            
       7.340          72.400                   7.340         830.280            
       7.345         100.000                   7.345         826.540            
       7.350         133.650                   7.350         812.500            
       7.355         143.370                   7.355         789.750            
       7.360         174.960                   7.360         773.500            
       7.365         206.550                   7.365         763.750            
       7.370         230.850                   7.370         737.750            
       7.375         264.870                   7.375         734.500            
       7.380         296.460                   7.380         702.000            
       7.385         330.480                   7.385         682.500            
       7.390         364.500                   7.390         666.250            
       7.395         405.810                   7.395         650.000            
       7.400         444.690                   7.400         630.500            
       7.405         483.570                   7.405         614.250            
       7.410         524.880                   7.410         591.500            
       7.415         563.760                   7.415         572.000            
       7.420         607.500                   7.420         552.500            
       7.425         648.830                   7.425         532.500            
       7.430         693.160                   7.430         506.940            
       7.435         705.250                   7.435         485.640            
       7.440         737.490                   7.440         468.600            
       7.445         761.670                   7.445         443.040            
       7.450         789.880                   7.450         419.610            
       7.455         814.060                   7.455         398.310            
       7.460         834.210                   7.460         379.140            
       7.465         858.390                   7.465         364.230            
       7.470         878.540                   7.470         338.670            
       7.475         906.750                   7.475         319.500            
       7.480         934.960                   7.480         296.070            
       7.485         959.140                   7.485         281.160            
       7.490         979.290                   7.490         251.340            
       7.495        1007.500                   7.495         236.430            
       7.500        1041.180                   7.500         215.000            
       7.505        1059.940                   7.505         199.520            
       7.510        1078.700                   7.510         179.740            
       7.515        1097.460                   7.515         159.960            
       7.520        1120.910                   7.520         139.320            
       7.525        1130.290                   7.525         119.540            
       7.530        1144.360                   7.530         102.340            
       7.535        1153.740                   7.535          81.700            
       7.540        1163.120                   7.540          59.340            
       7.545        1163.120                   7.545          24.940            
       7.550        1167.810                   7.550           9.460            
       7.555        1172.500                   7.555           1.720            
       7.560        1163.120                   7.560           0.000            
       7.565        1163.120                   7.565           0.000            
       7.570        1163.120                   7.570           0.000            
       7.575        1160.000                   7.575           0.000            
       7.580        1146.080                   7.580           0.000            
       7.585        1141.440                   7.585           0.000            
       7.590        1132.160                   7.590           0.000            
       7.595        1122.880                   7.595           0.000            
       7.600        1108.960                   7.600           0.000            
       7.605        1099.680                   7.605           0.000            
       7.610        1090.400                   7.610           0.000            
       7.615        1081.120                   7.615           0.000            
       7.620        1071.840                   7.620           0.000            
       7.625        1062.560                   7.625           0.000            
       7.630        1053.280                   7.630           0.000            
       7.635        1039.360                   7.635           0.000            
       7.640        1034.720                   7.640           0.000            
       7.645        1030.080                   7.645           0.000            
       7.650        1020.000                   7.650           0.000            
       7.655        1007.760                   7.655           0.000            
       7.660        1003.680                   7.660           0.000            
       7.665         999.600                   7.665           0.000            
       7.670         995.520                   7.670           0.000            
       7.675         987.360                   7.675           0.000            
       7.680         991.440                   7.680           0.000            
       7.685         983.280                   7.685           0.000            
       7.690         979.200                   7.690           0.000            
       7.695         975.120                   7.695           0.000            
       7.700         979.200                   7.700           0.000            
       7.705         971.040                   7.705           0.000            
       7.710         971.040                   7.710           0.000            
       7.715         966.960                   7.715           0.000            
       7.720         962.880                   7.720           0.000            
       7.725         970.000                   7.725           0.000            
       7.730         954.480                   7.730           0.000            
       7.735         958.360                   7.735           0.000            
       7.740         954.480                   7.740           0.000            
       7.745         946.720                   7.745           0.000            
       7.750         938.960                   7.750           0.000            
       7.755         942.840                   7.755           0.000            
       7.760         946.720                   7.760           0.000            
       7.765         935.080                   7.765           0.000            
       7.770         938.960                   7.770           0.000            
       7.775         935.080                   7.775           0.000            
       7.780         938.960                   7.780           0.000            
       7.785         942.840                   7.785           0.000            
       7.790         938.960                   7.790           0.000            
       7.795         946.720                   7.795           0.000            
       7.800         951.950                   7.800           0.000            
       7.805         944.050                   7.805           0.000            
       7.810         951.950                   7.810           0.000            
       7.815         951.950                   7.815           0.000            
       7.820         951.950                   7.820           0.000            
       7.825         959.850                   7.825           0.000            
       7.830         955.900                   7.830           0.000            
       7.835         963.800                   7.835           0.000            
       7.840         975.650                   7.840           0.000            
       7.845         971.700                   7.845           0.000            
       7.850         975.650                   7.850           0.000            
       7.855         979.600                   7.855           0.000            
       7.860         983.550                   7.860           0.000            
       7.865         987.500                   7.865           0.000            
       7.870         983.550                   7.870           0.000            
       7.875         992.500                   7.875           0.000            
       7.880         976.620                   7.880           0.000            
       7.885         984.560                   7.885           0.000            
       7.890         976.620                   7.890           0.000            
       7.895         980.590                   7.895           0.000            
       7.900         976.620                   7.900           0.000            
       7.905         976.620                   7.905           0.000            
       7.910         968.680                   7.910           0.000            
       7.915         968.680                   7.915           0.000            
       7.920         964.710                   7.920           0.000            
       7.925         960.740                   7.925           0.000            
       7.930         956.770                   7.930           0.000            
       7.935         948.830                   7.935           0.000            
       7.940         948.830                   7.940           0.000            
       7.945         936.920                   7.945           0.000            
       7.950         945.000                   7.950           0.000            
       7.955         922.320                   7.955           0.000            
       7.960         922.320                   7.960           0.000            
       7.965         914.760                   7.965           0.000            
       7.970         907.200                   7.970           0.000            
       7.975         907.200                   7.975           0.000            
       7.980         899.640                   7.980           0.000            
       7.985         892.080                   7.985           0.000            
       7.990         895.860                   7.990           0.000            
       7.995         892.080                   7.995           0.000            
       8.000         888.300                   8.000           0.000            
       8.005         884.520                   8.005           0.000            
       8.010         884.520                   8.010           0.000            
       8.015         880.740                   8.015           0.000            
       8.020         876.960                   8.020           0.000            
       8.025         882.500                   8.025          26.000            
       8.030         864.850                   8.030          39.000            
       8.035         847.200                   8.035          57.200            
       8.040         840.140                   8.040          85.800            
       8.045         822.490                   8.045         143.000            
       8.050         801.310                   8.050         210.600            
       8.055         780.130                   8.055         273.000            
       8.060         751.890                   8.060         325.000            
       8.065         716.590                   8.065         356.200            
       8.070         691.880                   8.070         405.600            
       8.075         649.520                   8.075         449.800            
       8.080         617.750                   8.080         512.200            
       8.085         568.330                   8.085         559.000            
       8.090         533.030                   8.090         611.000            
       8.095         476.550                   8.095         650.000            
       8.100         450.000                   8.100         696.960            
       8.105         401.400                   8.105         735.680            
       8.110         360.000                   8.110         774.400            
       8.115         315.000                   8.115         813.120            
       8.120         273.600                   8.120         856.680            
       8.125         241.200                   8.125         890.560            
       8.130         203.400                   8.130         934.120            
       8.135         176.400                   8.135         963.160            
       8.140         142.200                   8.140        1006.720            
       8.145         111.600                   8.145        1040.600            
       8.150          91.800                   8.150        1074.480            
       8.155          81.000                   8.155        1103.520            
       8.160          55.800                   8.160        1147.080            
       8.165          21.600                   8.165        1176.120            
       8.170           7.200                   8.170        1210.000            
       8.175           7.500                   8.175        1248.050            
       8.180           0.000                   8.180        1275.300            
       8.185           0.000                   8.185        1308.000            
       8.190           0.000                   8.190        1329.800            
       8.195           0.000                   8.195        1346.150            
       8.200           0.000                   8.200        1357.050            
       8.205           0.000                   8.205        1362.500            
       8.210           0.000                   8.210        1362.500            
       8.215           0.000                   8.215        1357.050            
       8.220           0.000                   8.220        1335.250            
       8.225           0.000                   8.225        1318.900            
       8.230           0.000                   8.230        1297.100            
       8.235           0.000                   8.235        1286.200            
       8.240           0.000                   8.240        1248.050            
       8.245           0.000                   8.245        1231.700            
       8.250           0.000                   8.250        1205.000            
       8.255           0.000                   8.255        1176.080            
       8.260           0.000                   8.260        1142.340            
       8.265           0.000                   8.265        1108.600            
       8.270           0.000                   8.270        1079.680            
       8.275           0.000                   8.275        1060.400            
       8.280           0.000                   8.280        1036.300            
       8.285           0.000                   8.285        1017.020            
       8.290           0.000                   8.290        1002.560            
       8.295           0.000                   8.295         983.280            
       8.300           0.000                   8.300         968.820            
       8.305           0.000                   8.305         964.000            
       8.310           0.000                   8.310         954.360            
       8.315           0.000                   8.315         939.900            
       8.320           0.000                   8.320         930.260            
       8.325           0.000                   8.325         926.670            
       8.330           0.000                   8.330         907.120            
       8.335           0.000                   8.335         907.120            
       8.340           0.000                   8.340         899.300            
       8.345           0.000                   8.345         907.120            
       8.350           0.000                   8.350         903.210            
       8.355           0.000                   8.355         907.120            
       8.360           0.000                   8.360         914.940            
       8.365           0.000                   8.365         918.850            
       8.370           0.000                   8.370         926.670            
       8.375           0.000                   8.375         934.490            
       8.380           0.000                   8.380         946.220            
       8.385           0.000                   8.385         954.040            
       8.390           0.000                   8.390         965.770            
       8.395           0.000                   8.395         977.500            
       8.400           0.000                   8.400         988.840            
       8.405           0.000                   8.405         993.030            
       8.410           0.000                   8.410         997.220            
       8.415           0.000                   8.415        1005.600            
       8.420           0.000                   8.420        1018.170            
       8.425           0.000                   8.425        1022.360            
       8.430           0.000                   8.430        1022.360            
       8.435           0.000                   8.435        1026.550            
       8.440           0.000                   8.440        1039.120            
       8.445           0.000                   8.445        1034.930            
       8.450           0.000                   8.450        1034.930            
       8.455           0.000                   8.455        1047.500            
       8.460           0.000                   8.460        1043.310            
       8.465           0.000                   8.465        1039.120            
       8.470           0.000                   8.470        1039.120            
       8.475           0.000                   8.475        1047.500            
       8.480           0.000                   8.480        1039.120            
       8.485           0.000                   8.485        1039.120            
       8.490           0.000                   8.490        1034.930            
       8.495           0.000                   8.495        1026.550            
       8.500           0.000                   8.500        1022.360            
       8.505           0.000                   8.505        1022.360            
       8.510           0.000                   8.510        1013.980            
       8.515           0.000                   8.515        1009.790            
       8.520           0.000                   8.520        1009.790            
       8.525           0.000                   8.525        1009.790            
       8.530           0.000                   8.530         997.220            
       8.535           0.000                   8.535         988.840            
       8.540           0.000                   8.540         988.840            
       8.545           0.000                   8.545         988.840            
       8.550           0.000                   8.550         997.500            
       8.555           0.000                   8.555         981.540            
       8.560           0.000                   8.560         981.540            
       8.565           0.000                   8.565         977.550            
       8.570           0.000                   8.570         973.560            
       8.575           0.000                   8.575         973.560            
       8.580           0.000                   8.580         977.550            
       8.585           0.000                   8.585         973.560            
       8.590           0.000                   8.590         969.570            
       8.595           0.000                   8.595         981.540            
       8.600           0.000                   8.600         977.550            
       8.605           0.000                   8.605         981.540            
       8.610           0.000                   8.610         989.520            
       8.615           0.000                   8.615         985.530            
       8.620           0.000                   8.620         985.530            
       8.625           0.000                   8.625         998.490            
       8.630           0.000                   8.630         994.480            
       8.635           0.000                   8.635        1002.500            
       8.640           0.000                   8.640         998.490            
       8.645           0.000                   8.645        1002.500            
       8.650           0.000                   8.650         994.480            
       8.655           0.000                   8.655         998.490            
       8.660           0.000                   8.660         998.490            
       8.665           0.000                   8.665         994.480            
       8.670           0.000                   8.670         998.490            
       8.675           0.000                   8.675         998.490            
       8.680           0.000                   8.680         994.480            
       8.685           0.000                   8.685         990.470            
       8.690           0.000                   8.690         990.470            
       8.695           0.000                   8.695         990.470            
       8.700           0.000                   8.700        1001.220            
       8.705           0.000                   8.705         997.150            
       8.710           0.000                   8.710         997.150            
       8.715           0.000                   8.715        1001.220            
       8.720           0.000                   8.720        1001.220            
       8.725           0.000                   8.725        1001.220            
       8.730           0.000                   8.730        1005.290            
       8.735           0.000                   8.735        1009.360            
       8.740           0.000                   8.740        1009.360            
       8.745           0.000                   8.745        1009.360            
       8.750           0.000                   8.750        1009.360            
       8.755           0.000                   8.755        1009.360            
       8.760           0.000                   8.760        1017.500            
       8.765           0.000                   8.765        1013.430            
       8.770           0.000                   8.770        1013.430            
       8.775           0.000                   8.775        1020.000            
       8.780           0.000                   8.780        1011.840            
       8.785           0.000                   8.785        1011.840            
       8.790           0.000                   8.790        1011.840            
       8.795           0.000                   8.795        1011.840            
       8.800           0.000                   8.800        1003.680            
       8.805           0.000                   8.805        1011.840            
       8.810           0.000                   8.810        1007.760            
       8.815           0.000                   8.815        1003.680            
       8.820           0.000                   8.820        1003.680            
       8.825           0.000                   8.825         999.600            
       8.830           0.000                   8.830         995.520            
       8.835           0.000                   8.835         991.440            
       8.840           0.000                   8.840         991.440            
       8.845           0.000                   8.845         995.520            
       8.850           0.000                   8.850         992.500            
       8.855           0.000                   8.855         984.560            
       8.860           0.000                   8.860         980.590            
       8.865           0.000                   8.865         976.620            
       8.870           0.000                   8.870         968.680            
       8.875           0.000                   8.875         964.710            
       8.880           0.000                   8.880         964.710            
       8.885           0.000                   8.885         964.710            
       8.890           0.000                   8.890         956.770            
       8.895           0.000                   8.895         952.800            
       8.900           0.000                   8.900         956.770            
       8.905           0.000                   8.905         944.860            
       8.910           0.000                   8.910         944.860            
       8.915           0.000                   8.915         936.920            
       8.920           0.000                   8.920         940.890            
       8.925           0.000                   8.925         942.500            
       8.930           0.000                   8.930         934.960            
       8.935           0.000                   8.935         938.730            
       8.940           0.000                   8.940         927.420            
       8.945           0.000                   8.945         927.420            
       8.950           0.000                   8.950         919.880            
       8.955           0.000                   8.955         919.880            
       8.960           0.000                   8.960         912.340            
       8.965           0.000                   8.965         904.800            
       8.970           0.000                   8.970         908.570            
       8.975           0.000                   8.975         904.800            
       8.980           0.000                   8.980         897.260            
       8.985           0.000                   8.985         897.260            
       8.990           0.000                   8.990         889.720            
       8.995           7.500                   8.995         882.180            
       9.000          21.700                   9.000         882.500            
       9.005          24.800                   9.005         868.380            
       9.010          62.000                   9.010         850.730            
       9.015          96.100                   9.015         843.670            
       9.020         142.600                   9.020         829.550            
       9.025         201.500                   9.025         826.020            
       9.030         248.000                   9.030         804.840            
       9.035         300.700                   9.035         783.660            
       9.040         359.600                   9.040         762.480            
       9.045         430.900                   9.045         741.300            
       9.050         492.900                   9.050         716.590            
       9.055         554.900                   9.055         691.880            
       9.060         623.100                   9.060         667.170            
       9.065         700.600                   9.065         631.870            
       9.070         775.000                   9.070         596.570            
       9.075         848.980                   9.075         572.500            
       9.080         894.380                   9.080         531.280            
       9.085         939.780                   9.085         496.930            
       9.090         980.640                   9.090         451.130            
       9.095        1012.420                   9.095         425.940            
       9.100        1044.200                   9.100         396.170            
       9.105        1071.440                   9.105         364.110            
       9.110        1089.600                   9.110         334.340            
       9.115        1103.220                   9.115         306.860            
       9.120        1112.300                   9.120         279.380            
       9.125        1125.920                   9.125         242.740            
       9.130        1135.000                   9.130         224.420            
       9.135        1135.000                   9.135         196.940            
       9.140        1135.000                   9.140         171.750            
       9.145        1135.000                   9.145         144.270            
       9.150        1130.000                   9.150         130.000            
       9.155        1116.440                   9.155         107.120            
       9.160        1102.880                   9.160          84.760            
       9.165        1102.880                   9.165          72.280            
       9.170        1093.840                   9.170          29.640            
       9.175        1080.280                   9.175          22.360            
       9.180        1080.280                   9.180          17.160            
       9.185        1062.200                   9.185           7.280            
       9.190        1048.640                   9.190           0.000            
       9.195        1048.640                   9.195           0.000            
       9.200        1044.120                   9.200           0.000            
       9.205        1035.080                   9.205           0.000            
       9.210        1030.560                   9.210           0.000            
       9.215        1026.040                   9.215           0.000            
       9.220        1021.520                   9.220           0.000            
       9.225        1025.000                   9.225           0.000            
       9.230        1008.600                   9.230           0.000            
       9.235        1020.900                   9.235           0.000            
       9.240        1008.600                   9.240           0.000            
       9.245        1008.600                   9.245           0.000            
       9.250        1008.600                   9.250           0.000            
       9.255        1004.500                   9.255           0.000            
       9.260        1004.500                   9.260           0.000            
       9.265        1008.600                   9.265           0.000            
       9.270        1008.600                   9.270           0.000            
       9.275        1004.500                   9.275           0.000            
       9.280        1004.500                   9.280           0.000            
       9.285        1004.500                   9.285           0.000            
       9.290         996.300                   9.290           0.000            
       9.295        1000.400                   9.295           0.000            
       9.300        1001.920                   9.300           0.000            
       9.305         993.840                   9.305           0.000            
       9.310         989.800                   9.310           0.000            
       9.315         989.800                   9.315           0.000            
       9.320         989.800                   9.320           0.000            
       9.325         989.800                   9.325           0.000            
       9.330         989.800                   9.330           0.000            
       9.335         993.840                   9.335           0.000            
       9.340         993.840                   9.340           0.000            
       9.345         993.840                   9.345           0.000            
       9.350        1005.960                   9.350           5.000            
       9.355        1010.000                   9.355           0.000            
       9.360        1005.960                   9.360           0.000            
       9.365        1001.920                   9.365          10.000            
       9.370        1010.000                   9.370           0.000            
       9.375        1009.360                   9.375           7.500            
       9.380        1001.220                   9.380           0.000            
       9.385        1001.220                   9.385           0.000            
       9.390         989.010                   9.390           0.000            
       9.395        1001.220                   9.395           4.980            
       9.400        1001.220                   9.400           0.000            
       9.405        1001.220                   9.405           0.000            
       9.410        1001.220                   9.410           0.000            
       9.415        1001.220                   9.415           0.000            
       9.420        1009.360                   9.420           0.000            
       9.425        1001.220                   9.425           4.980            
       9.430        1005.290                   9.430           0.000            
       9.435        1001.220                   9.435           0.000            
       9.440        1005.290                   9.440           0.000            
       9.445        1017.500                   9.445           2.490            
************.***    ********.**                9.450           5.000            
************.***    ********.**                9.455           0.000            
************.***    ********.**                9.460           0.000            
************.***    ********.**                9.465           0.000            
************.***    ********.**                9.470           0.000            
************.***    ********.**                9.475           0.000            
************.***    ********.**                9.480           0.000            
************.***    ********.**                9.485           0.000            
************.***    ********.**                9.490           0.000            
************.***    ********.**                9.495           0.000            
************.***    ********.**                9.500           0.000            
************.***    ********.**                9.505           0.000            
************.***    ********.**                9.510           0.000            
************.***    ********.**                9.515           0.000            
************.***    ********.**                9.520           0.000            
************.***    ********.**                9.525           2.500            
************.***    ********.**                9.530           0.000            
************.***    ********.**                9.535           0.000            
************.***    ********.**                9.540           2.500            
************.***    ********.**                9.545           0.000            
************.***    ********.**                9.550           2.500            
************.***    ********.**                9.555           0.000            
************.***    ********.**                9.560           2.500            
************.***    ********.**                9.565           0.000            
************.***    ********.**                9.570           0.000            
************.***    ********.**                9.575           0.000            
************.***    ********.**                9.580           0.000            
************.***    ********.**                9.585           0.000            
************.***    ********.**                9.590           0.000            
************.***    ********.**                9.595           0.000            
************.***    ********.**                9.600           2.500            
************.***    ********.**                9.605           0.000            
************.***    ********.**                9.610           0.000            
************.***    ********.**                9.615           0.000            
************.***    ********.**                9.620           0.000            
************.***    ********.**                9.625           0.000            
************.***    ********.**                9.630           0.000            
************.***    ********.**                9.635           0.000            
************.***    ********.**                9.640           0.000            
************.***    ********.**                9.645           0.000            
************.***    ********.**                9.650           0.000            
************.***    ********.**                9.655           0.000            
************.***    ********.**                9.660           0.000            
************.***    ********.**                9.665           0.000            
************.***    ********.**                9.670           0.000            
************.***    ********.**                9.675           0.000            
************.***    ********.**                9.680           0.000            
************.***    ********.**                9.685           0.000            
************.***    ********.**                9.690           0.000            
************.***    ********.**                9.695           0.000            
************.***    ********.**                9.700           4.950            
************.***    ********.**                9.705           7.480            
************.***    ********.**                9.710          12.430            
************.***    ********.**                9.715          14.960            
************.***    ********.**                9.720          27.500            
************.***    ********.**                9.725          19.910            
************.***    ********.**                9.730          19.910            
************.***    ********.**                9.735          22.440            
************.***    ********.**                9.740          27.500            
************.***    ********.**                9.745          22.440            
************.***    ********.**                9.750          32.480            
************.***    ********.**                9.755          34.800            
************.***    ********.**                9.760          49.880            
************.***    ********.**                9.765          59.740            
************.***    ********.**                9.770          64.960            
************.***    ********.**                9.775          69.600            
************.***    ********.**                9.780          77.140            
************.***    ********.**                9.785          87.000            
************.***    ********.**                9.790          94.540            
************.***    ********.**                9.795          97.440            
************.***    ********.**                9.800         104.980            
************.***    ********.**                9.805         111.940            
************.***    ********.**                9.810         127.020            
************.***    ********.**                9.815         139.780            
************.***    ********.**                9.820         145.000            
************.***    ********.**                9.825         162.140            
************.***    ********.**                9.830         164.820            
************.***    ********.**                9.835         176.880            
************.***    ********.**                9.840         188.940            
************.***    ********.**                9.845         209.040            
************.***    ********.**                9.850         211.720            
************.***    ********.**                9.855         223.780            
************.***    ********.**                9.860         241.200            
************.***    ********.**                9.865         254.600            
************.***    ********.**                9.870         263.980            
************.***    ********.**                9.875         278.720            
************.***    ********.**                9.880         292.120            
************.***    ********.**                9.885         309.540            
************.***    ********.**                9.890         316.240            
************.***    ********.**                9.895         335.000            
************.***    ********.**                9.900         349.600            
************.***    ********.**                9.905         356.960            
************.***    ********.**                9.910         364.320            
************.***    ********.**                9.915         379.040            
************.***    ********.**                9.920         391.920            
************.***    ********.**                9.925         397.440            
************.***    ********.**                9.930         408.480            
************.***    ********.**                9.935         415.840            
************.***    ********.**                9.940         426.880            
************.***    ********.**                9.945         432.400            
************.***    ********.**                9.950         434.240            
************.***    ********.**                9.955         443.440            
************.***    ********.**                9.960         450.800            
************.***    ********.**                9.965         460.000            
************.***    ********.**                9.970         460.000            
************.***    ********.**                9.975         469.640            
************.***    ********.**                9.980         465.660            
************.***    ********.**                9.985         473.620            
************.***    ********.**                9.990         471.630            
************.***    ********.**                9.995         479.590            
************.***    ********.**               10.000         481.580            
************.***    ********.**               10.005         483.570            
************.***    ********.**               10.010         485.560            
************.***    ********.**               10.015         489.540            
************.***    ********.**               10.020         497.500            
************.***    ********.**               10.025         491.530            
************.***    ********.**               10.030         491.530            
************.***    ********.**               10.035         491.530            
************.***    ********.**               10.040         493.520            
************.***    ********.**               10.045         491.530            
************.***    ********.**               10.050         492.500            
************.***    ********.**               10.055         484.620            
************.***    ********.**               10.060         484.620            
************.***    ********.**               10.065         476.740            
************.***    ********.**               10.070         476.740            
************.***    ********.**               10.075         470.830            
************.***    ********.**               10.080         464.920            
************.***    ********.**               10.085         466.890            
************.***    ********.**               10.090         460.980            
************.***    ********.**               10.095         457.040            
************.***    ********.**               10.100         457.040            
************.***    ********.**               10.105         451.130            
************.***    ********.**               10.110         453.100            
************.***    ********.**               10.115         441.280            
************.***    ********.**               10.120         439.310            
************.***    ********.**               10.125         437.500            
************.***    ********.**               10.130         421.750            
************.***    ********.**               10.135         420.000            
************.***    ********.**               10.140         414.750            
************.***    ********.**               10.145         404.250            
************.***    ********.**               10.150         399.000            
************.***    ********.**               10.155         386.750            
************.***    ********.**               10.160         374.500            
************.***    ********.**               10.165         358.750            
************.***    ********.**               10.170         350.000            
************.***    ********.**               10.175         334.250            
************.***    ********.**               10.180         318.500            
************.***    ********.**               10.185         306.250            
************.***    ********.**               10.190         276.500            
************.***    ********.**               10.195         259.000            
************.***    ********.**               10.200         237.500            
************.***    ********.**               10.205         214.700            
************.***    ********.**               10.210         191.900            
************.***    ********.**               10.215         164.350            
************.***    ********.**               10.220         144.400            
************.***    ********.**               10.225         119.700            
************.***    ********.**               10.230          96.900            
************.***    ********.**               10.235          84.550            
************.***    ********.**               10.240          69.350            
************.***    ********.**               10.245          34.200            
************.***    ********.**               10.250          17.100            
************.***    ********.**               10.255           4.750            
************.***    ********.**               10.260           4.750            
************.***    ********.**               10.265           0.000            
************.***    ********.**               10.270           0.000            
************.***    ********.**               10.275           0.000            
************.***    ********.**               10.280           0.000            
************.***    ********.**               10.285           0.000            
************.***    ********.**               10.290           0.000            
************.***    ********.**               10.295           0.000            
************.***    ********.**               10.300           0.000            
************.***    ********.**               10.305           0.000            
************.***    ********.**               10.310           0.000            
************.***    ********.**               10.315           0.000            
************.***    ********.**               10.320           0.000            
************.***    ********.**               10.325           0.000            
************.***    ********.**               10.330           0.000            
************.***    ********.**               10.335           0.000            
************.***    ********.**               10.340           0.000            
************.***    ********.**               10.345           0.000            
************.***    ********.**               10.350           7.500            
************.***    ********.**               10.355           0.000            
************.***    ********.**               10.360           0.000            
************.***    ********.**               10.365           0.000            
************.***    ********.**               10.370           0.000            
************.***    ********.**               10.375           0.000            
************.***    ********.**               10.380           0.000            
************.***    ********.**               10.385           0.000            
************.***    ********.**               10.390           0.000            
************.***    ********.**               10.395           0.000            
************.***    ********.**               10.400           0.000            
************.***    ********.**               10.405           0.000            
************.***    ********.**               10.410           0.000            
************.***    ********.**               10.415           0.000            
************.***    ********.**               10.420           0.000            
************.***    ********.**               10.425           0.000            
************.***    ********.**               10.430           0.000            
************.***    ********.**               10.435           0.000            
************.***    ********.**               10.440           0.000            
************.***    ********.**               10.445           0.000            
************.***    ********.**               10.450           0.000            
************.***    ********.**               10.455           0.000            
************.***    ********.**               10.460           0.000            
************.***    ********.**               10.465           0.000            
************.***    ********.**               10.470           0.000            
************.***    ********.**               10.475           0.000            
************.***    ********.**               10.480           0.000            
************.***    ********.**               10.485           0.000            
************.***    ********.**               10.490           0.000            
************.***    ********.**               10.495           0.000            
