File: ul3   18.02.20  02:59:11
Comment: ul3
                    P1Y374-L                                P1Y373-R                                
Time[secs]          Force[N]            Time[secs]          Force[N]            
       0.000        1043.040                   0.000           0.000            
       0.005        1034.560                   0.005           0.000            
       0.010        1038.800                   0.010           2.450            
       0.015        1047.280                   0.015           0.000            
       0.020        1043.040                   0.020           0.000            
       0.025        1047.280                   0.025           0.000            
       0.030        1047.280                   0.030          17.500            
       0.035        1051.520                   0.035           0.000            
       0.040        1047.280                   0.040           0.000            
       0.045        1060.000                   0.045           0.000            
       0.050        1047.280                   0.050           0.000            
       0.055        1055.760                   0.055           0.000            
       0.060        1051.520                   0.060           0.000            
       0.065        1051.520                   0.065           0.000            
       0.070        1051.520                   0.070           2.450            
       0.075        1061.440                   0.075           2.500            
       0.080        1057.160                   0.080           0.000            
       0.085        1057.160                   0.085           0.000            
       0.090        1057.160                   0.090           0.000            
       0.095        1057.160                   0.095           0.000            
       0.100        1052.880                   0.100           0.000            
       0.105        1057.160                   0.105           0.000            
       0.110        1061.440                   0.110           0.000            
       0.115        1061.440                   0.115           0.000            
       0.120        1057.160                   0.120           0.000            
       0.125        1061.440                   0.125           0.000            
       0.130        1070.000                   0.130           2.500            
       0.135        1061.440                   0.135           0.000            
       0.140        1065.720                   0.140           0.000            
       0.145        1065.720                   0.145           0.000            
       0.150        1063.920                   0.150           7.500            
       0.155        1072.500                   0.155           0.000            
       0.160        1063.920                   0.160           2.490            
       0.165        1059.630                   0.165           2.490            
       0.170        1059.630                   0.170           2.490            
       0.175        1055.340                   0.175           2.490            
       0.180        1051.050                   0.180           0.000            
       0.185        1055.340                   0.185           2.490            
       0.190        1051.050                   0.190           2.490            
       0.195        1046.760                   0.195           0.000            
       0.200        1046.760                   0.200           0.000            
       0.205        1059.630                   0.205           2.490            
       0.210        1051.050                   0.210           0.000            
       0.215        1046.760                   0.215           7.500            
       0.220        1046.760                   0.220           0.000            
       0.225        1057.500                   0.225           7.500            
       0.230        1044.810                   0.230           0.000            
       0.235        1049.040                   0.235           4.980            
       0.240        1044.810                   0.240           0.000            
       0.245        1044.810                   0.245           2.490            
       0.250        1049.040                   0.250           0.000            
       0.255        1044.810                   0.255           7.500            
       0.260        1053.270                   0.260           0.000            
       0.265        1044.810                   0.265           0.000            
       0.270        1049.040                   0.270           0.000            
       0.275        1044.810                   0.275           0.000            
       0.280        1049.040                   0.280           0.000            
       0.285        1044.810                   0.285           0.000            
       0.290        1049.040                   0.290           0.000            
       0.295        1049.040                   0.295           2.490            
       0.300        1055.760                   0.300           7.500            
       0.305        1047.280                   0.305           0.000            
       0.310        1047.280                   0.310           0.000            
       0.315        1047.280                   0.315           2.490            
       0.320        1047.280                   0.320           0.000            
       0.325        1043.040                   0.325           0.000            
       0.330        1051.520                   0.330           0.000            
       0.335        1047.280                   0.335           0.000            
       0.340        1051.520                   0.340           2.490            
       0.345        1047.280                   0.345           0.000            
       0.350        1047.280                   0.350           0.000            
       0.355        1060.000                   0.355           0.000            
       0.360        1051.520                   0.360           4.980            
       0.365        1051.520                   0.365           0.000            
       0.370        1047.280                   0.370           2.490            
       0.375        1060.000                   0.375           7.500            
       0.380        1047.280                   0.380           0.000            
       0.385        1060.000                   0.385           0.000            
       0.390        1047.280                   0.390           2.490            
       0.395        1051.520                   0.395           4.980            
       0.400        1047.280                   0.400           0.000            
       0.405        1047.280                   0.405           0.000            
       0.410        1047.280                   0.410           0.000            
       0.415        1060.000                   0.415           0.000            
       0.420        1043.040                   0.420           4.980            
       0.425        1043.040                   0.425           0.000            
       0.430        1047.280                   0.430           0.000            
       0.435        1043.040                   0.435           0.000            
       0.440        1038.800                   0.440           2.490            
       0.445        1038.800                   0.445           4.980            
       0.450        1052.500                   0.450          10.000            
       0.455        1039.870                   0.455           5.000            
       0.460        1035.660                   0.460           0.000            
       0.465        1039.870                   0.465           0.000            
       0.470        1039.870                   0.470           2.480            
       0.475        1031.450                   0.475           0.000            
       0.480        1035.660                   0.480           0.000            
       0.485        1035.660                   0.485           2.480            
       0.490        1035.660                   0.490           0.000            
       0.495        1027.240                   0.495           2.480            
       0.500        1027.240                   0.500           0.000            
       0.505        1031.450                   0.505           2.480            
       0.510        1031.450                   0.510           0.000            
       0.515        1031.450                   0.515           0.000            
       0.520        1031.450                   0.520           2.480            
       0.525        1033.350                   0.525           7.500            
       0.530        1025.050                   0.530           0.000            
       0.535        1025.050                   0.535           0.000            
       0.540        1016.750                   0.540           0.000            
       0.545        1020.900                   0.545           2.490            
       0.550        1020.900                   0.550           0.000            
       0.555        1020.900                   0.555           4.980            
       0.560        1025.050                   0.560           2.490            
       0.565        1025.050                   0.565           4.980            
       0.570        1029.200                   0.570           0.000            
       0.575        1029.200                   0.575           0.000            
       0.580        1029.200                   0.580           4.980            
       0.585        1020.900                   0.585           0.000            
       0.590        1029.200                   0.590           0.000            
       0.595        1037.500                   0.595           0.000            
       0.600        1037.500                   0.600           5.000            
       0.605        1033.350                   0.605           5.000            
       0.610        1029.200                   0.610           0.000            
       0.615        1029.200                   0.615           0.000            
       0.620        1029.200                   0.620           0.000            
       0.625        1029.200                   0.625           0.000            
       0.630        1029.200                   0.630           2.500            
       0.635        1029.200                   0.635           0.000            
       0.640        1029.200                   0.640           0.000            
       0.645        1025.050                   0.645           2.500            
       0.650        1033.350                   0.650           2.500            
       0.655        1029.200                   0.655           2.500            
       0.660        1029.200                   0.660           0.000            
       0.665        1029.200                   0.665           2.500            
       0.670        1029.200                   0.670           2.500            
       0.675        1037.500                   0.675           7.500            
       0.680        1029.200                   0.680           2.490            
       0.685        1029.200                   0.685           0.000            
       0.690        1033.350                   0.690           0.000            
       0.695        1029.200                   0.695           0.000            
       0.700        1037.500                   0.700           0.000            
       0.705        1033.350                   0.705           0.000            
       0.710        1029.200                   0.710           0.000            
       0.715        1033.350                   0.715           0.000            
       0.720        1029.200                   0.720           2.490            
       0.725        1025.050                   0.725           0.000            
       0.730        1020.900                   0.730           0.000            
       0.735        1029.200                   0.735           0.000            
       0.740        1020.900                   0.740           0.000            
       0.745        1020.900                   0.745           0.000            
       0.750        1032.500                   0.750           7.500            
       0.755        1015.980                   0.755           4.980            
       0.760        1024.240                   0.760           0.000            
       0.765        1024.240                   0.765           4.980            
       0.770        1024.240                   0.770           2.490            
       0.775        1020.110                   0.775           0.000            
       0.780        1024.240                   0.780           0.000            
       0.785        1024.240                   0.785           0.000            
       0.790        1020.110                   0.790           0.000            
       0.795        1015.980                   0.795           2.490            
       0.800        1024.240                   0.800           0.000            
       0.805        1024.240                   0.805           2.490            
       0.810        1020.110                   0.810           0.000            
       0.815        1015.980                   0.815           4.980            
       0.820        1024.240                   0.820           2.490            
       0.825        1023.390                   0.825          10.000            
       0.830        1027.500                   0.830           2.480            
       0.835        1019.280                   0.835           0.000            
       0.840        1019.280                   0.840           2.480            
       0.845        1019.280                   0.845           2.480            
       0.850        1019.280                   0.850           0.000            
       0.855        1023.390                   0.855           0.000            
       0.860        1027.500                   0.860           0.000            
       0.865        1019.280                   0.865          10.000            
       0.870        1027.500                   0.870           0.000            
       0.875        1023.390                   0.875           2.480            
       0.880        1023.390                   0.880           0.000            
       0.885        1019.280                   0.885           0.000            
       0.890        1023.390                   0.890           0.000            
       0.895        1019.280                   0.895           7.480            
       0.900        1030.860                   0.900          10.000            
       0.905        1022.580                   0.905           5.000            
       0.910        1026.720                   0.910           2.480            
       0.915        1022.580                   0.915           2.480            
       0.920        1026.720                   0.920           2.480            
       0.925        1030.860                   0.925           7.480            
       0.930        1030.860                   0.930           2.480            
       0.935        1022.580                   0.935           0.000            
       0.940        1026.720                   0.940           2.480            
       0.945        1026.720                   0.945           0.000            
       0.950        1030.860                   0.950           0.000            
       0.955        1035.000                   0.955           0.000            
       0.960        1026.720                   0.960           0.000            
       0.965        1030.860                   0.965           0.000            
       0.970        1026.720                   0.970           0.000            
       0.975        1034.160                   0.975           7.500            
       0.980        1029.990                   0.980           2.490            
       0.985        1034.160                   0.985           0.000            
       0.990        1034.160                   0.990           0.000            
       0.995        1034.160                   0.995           0.000            
       1.000        1034.160                   1.000           0.000            
       1.005        1034.160                   1.005           0.000            
       1.010        1034.160                   1.010           2.490            
       1.015        1034.160                   1.015           2.490            
       1.020        1038.330                   1.020           2.490            
       1.025        1034.160                   1.025           0.000            
       1.030        1038.330                   1.030           2.490            
       1.035        1042.500                   1.035           0.000            
       1.040        1038.330                   1.040           4.980            
       1.045        1042.500                   1.045           0.000            
       1.050        1047.500                   1.050          10.000            
       1.055        1039.120                   1.055           2.480            
       1.060        1043.310                   1.060           5.000            
       1.065        1034.930                   1.065           0.000            
       1.070        1039.120                   1.070           0.000            
       1.075        1039.120                   1.075           0.000            
       1.080        1039.120                   1.080           5.000            
       1.085        1039.120                   1.085           5.000            
       1.090        1039.120                   1.090           2.480            
       1.095        1039.120                   1.095           0.000            
       1.100        1039.120                   1.100           5.000            
       1.105        1039.120                   1.105           0.000            
       1.110        1034.930                   1.110           7.480            
       1.115        1039.120                   1.115           5.000            
       1.120        1030.740                   1.120           5.000            
       1.125        1040.000                   1.125           7.500            
       1.130        1031.680                   1.130           0.000            
       1.135        1031.680                   1.135           0.000            
       1.140        1031.680                   1.140           7.500            
       1.145        1023.360                   1.145           2.490            
       1.150        1027.520                   1.150           4.980            
       1.155        1023.360                   1.155           0.000            
       1.160        1023.360                   1.160           4.980            
       1.165        1023.360                   1.165           0.000            
       1.170        1027.520                   1.170           2.490            
       1.175        1023.360                   1.175           2.490            
       1.180        1019.200                   1.180           0.000            
       1.185        1023.360                   1.185           2.490            
       1.190        1023.360                   1.190           0.000            
       1.195        1023.360                   1.195           0.000            
       1.200        1035.840                   1.200           7.500            
       1.205        1031.680                   1.205           0.000            
       1.210        1023.360                   1.210           2.490            
       1.215        1023.360                   1.215           0.000            
       1.220        1027.520                   1.220           2.490            
       1.225        1031.680                   1.225           0.000            
       1.230        1031.680                   1.230           2.490            
       1.235        1040.000                   1.235           2.490            
       1.240        1031.680                   1.240           0.000            
       1.245        1031.680                   1.245           0.000            
       1.250        1040.000                   1.250           2.490            
       1.255        1035.840                   1.255           7.500            
       1.260        1035.840                   1.260           7.500            
       1.265        1031.680                   1.265           2.490            
       1.270        1035.840                   1.270           0.000            
       1.275        1036.640                   1.275           5.000            
       1.280        1036.640                   1.280           0.000            
       1.285        1040.820                   1.285           2.500            
       1.290        1036.640                   1.290           2.500            
       1.295        1036.640                   1.295           0.000            
       1.300        1032.460                   1.300           2.500            
       1.305        1036.640                   1.305           0.000            
       1.310        1036.640                   1.310           2.500            
       1.315        1036.640                   1.315           0.000            
       1.320        1040.820                   1.320           2.500            
       1.325        1036.640                   1.325           0.000            
       1.330        1040.820                   1.330           2.500            
       1.335        1036.640                   1.335           0.000            
       1.340        1032.460                   1.340           2.500            
       1.345        1045.000                   1.345           0.000            
       1.350        1040.000                   1.350           7.480            
       1.355        1031.680                   1.355           5.000            
       1.360        1031.680                   1.360           2.480            
       1.365        1031.680                   1.365           5.000            
       1.370        1040.000                   1.370           2.480            
       1.375        1027.520                   1.375           7.480            
       1.380        1023.360                   1.380           5.000            
       1.385        1023.360                   1.385           2.480            
       1.390        1027.520                   1.390           0.000            
       1.395        1023.360                   1.395           0.000            
       1.400        1023.360                   1.400           2.480            
       1.405        1019.200                   1.405          10.000            
       1.410        1019.200                   1.410           2.480            
       1.415        1023.360                   1.415           2.480            
       1.420        1023.360                   1.420           5.000            
       1.425        1029.990                   1.425           7.480            
       1.430        1025.820                   1.430           7.480            
       1.435        1025.820                   1.435          10.000            
       1.440        1029.990                   1.440           7.480            
       1.445        1029.990                   1.445           0.000            
       1.450        1029.990                   1.450           2.480            
       1.455        1034.160                   1.455           0.000            
       1.460        1034.160                   1.460           0.000            
       1.465        1042.500                   1.465          10.000            
       1.470        1034.160                   1.470           0.000            
       1.475        1034.160                   1.475           5.000            
       1.480        1034.160                   1.480           0.000            
       1.485        1034.160                   1.485           2.480            
       1.490        1025.820                   1.490           5.000            
       1.495        1034.160                   1.495           2.480            
       1.500        1034.930                   1.500          12.500            
       1.505        1026.550                   1.505           2.500            
       1.510        1034.930                   1.510           0.000            
       1.515        1034.930                   1.515           5.000            
       1.520        1034.930                   1.520           5.000            
       1.525        1043.310                   1.525           0.000            
       1.530        1039.120                   1.530           0.000            
       1.535        1034.930                   1.535           0.000            
       1.540        1034.930                   1.540           0.000            
       1.545        1039.120                   1.545           5.000            
       1.550        1039.120                   1.550           2.500            
       1.555        1039.120                   1.555           7.500            
       1.560        1034.930                   1.560           2.500            
       1.565        1047.500                   1.565           2.500            
       1.570        1039.120                   1.570           2.500            
       1.575        1060.000                   1.575           7.500            
       1.580        1047.280                   1.580           2.490            
       1.585        1047.280                   1.585           2.490            
       1.590        1051.520                   1.590           7.500            
       1.595        1047.280                   1.595           2.490            
       1.600        1047.280                   1.600           2.490            
       1.605        1051.520                   1.605           4.980            
       1.610        1051.520                   1.610           0.000            
       1.615        1051.520                   1.615           2.490            
       1.620        1047.280                   1.620           0.000            
       1.625        1051.520                   1.625           2.490            
       1.630        1047.280                   1.630           4.980            
       1.635        1047.280                   1.635           0.000            
       1.640        1051.520                   1.640           4.980            
       1.645        1051.520                   1.645           7.500            
       1.650        1053.270                   1.650          10.000            
       1.655        1049.040                   1.655           7.500            
       1.660        1049.040                   1.660           5.000            
       1.665        1044.810                   1.665           5.000            
       1.670        1049.040                   1.670           5.000            
       1.675        1049.040                   1.675           2.500            
       1.680        1057.500                   1.680           0.000            
       1.685        1049.040                   1.685           7.500            
       1.690        1049.040                   1.690           0.000            
       1.695        1044.810                   1.695           5.000            
       1.700        1049.040                   1.700           0.000            
       1.705        1049.040                   1.705           2.500            
       1.710        1049.040                   1.710           0.000            
       1.715        1049.040                   1.715          12.500            
       1.720        1049.040                   1.720           5.000            
       1.725        1057.500                   1.725           7.480            
       1.730        1044.810                   1.730           7.480            
       1.735        1049.040                   1.735           0.000            
       1.740        1044.810                   1.740           5.000            
       1.745        1044.810                   1.745           2.480            
       1.750        1049.040                   1.750           2.480            
       1.755        1049.040                   1.755           5.000            
       1.760        1040.580                   1.760           7.480            
       1.765        1044.810                   1.765           5.000            
       1.770        1044.810                   1.770           2.480            
       1.775        1044.810                   1.775           5.000            
       1.780        1044.810                   1.780           0.000            
       1.785        1049.040                   1.785           5.000            
       1.790        1044.810                   1.790          10.000            
       1.795        1049.040                   1.795           2.480            
       1.800        1053.270                   1.800          10.000            
       1.805        1049.040                   1.805          10.000            
       1.810        1049.040                   1.810           2.480            
       1.815        1049.040                   1.815          10.000            
       1.820        1049.040                   1.820           5.000            
       1.825        1049.040                   1.825           7.480            
       1.830        1049.040                   1.830           2.480            
       1.835        1053.270                   1.835           5.000            
       1.840        1053.270                   1.840           2.480            
       1.845        1057.500                   1.845           7.480            
       1.850        1049.040                   1.850           5.000            
       1.855        1049.040                   1.855           5.000            
       1.860        1049.040                   1.860           7.480            
       1.865        1049.040                   1.865           5.000            
       1.870        1049.040                   1.870           7.480            
       1.875        1054.000                   1.875          10.000            
       1.880        1045.500                   1.880           5.000            
       1.885        1049.750                   1.885           7.480            
       1.890        1049.750                   1.890           5.000            
       1.895        1041.250                   1.895           0.000            
       1.900        1049.750                   1.900           5.000            
       1.905        1045.500                   1.905           0.000            
       1.910        1049.750                   1.910           2.480            
       1.915        1049.750                   1.915          10.000            
       1.920        1058.250                   1.920           5.000            
       1.925        1054.000                   1.925           7.480            
       1.930        1054.000                   1.930           2.480            
       1.935        1062.500                   1.935           2.480            
       1.940        1054.000                   1.940           5.000            
       1.945        1058.250                   1.945           2.480            
       1.950        1070.000                   1.950          12.500            
       1.955        1061.440                   1.955           5.000            
       1.960        1061.440                   1.960           0.000            
       1.965        1065.720                   1.965           7.500            
       1.970        1061.440                   1.970           2.500            
       1.975        1065.720                   1.975           7.500            
       1.980        1061.440                   1.980           0.000            
       1.985        1061.440                   1.985           5.000            
       1.990        1065.720                   1.990           5.000            
       1.995        1061.440                   1.995           7.500            
       2.000        1061.440                   2.000           2.500            
       2.005        1061.440                   2.005           2.500            
       2.010        1065.720                   2.010           5.000            
       2.015        1057.160                   2.015           2.500            
       2.020        1057.160                   2.020           0.000            
       2.025        1062.500                   2.025          12.500            
       2.030        1054.000                   2.030          10.000            
       2.035        1058.250                   2.035           7.500            
       2.040        1049.750                   2.040           7.500            
       2.045        1045.500                   2.045           2.500            
       2.050        1041.250                   2.050           0.000            
       2.055        1049.750                   2.055           2.500            
       2.060        1041.250                   2.060           0.000            
       2.065        1045.500                   2.065           2.500            
       2.070        1037.000                   2.070           7.500            
       2.075        1037.000                   2.075           5.000            
       2.080        1037.000                   2.080           2.500            
       2.085        1037.000                   2.085           5.000            
       2.090        1032.750                   2.090           7.500            
       2.095        1028.500                   2.095           5.000            
       2.100        1037.500                   2.100          12.480            
       2.105        1029.200                   2.105           7.500            
       2.110        1029.200                   2.110           7.500            
       2.115        1029.200                   2.115           7.500            
       2.120        1025.050                   2.120           4.980            
       2.125        1025.050                   2.125           4.980            
       2.130        1029.200                   2.130          15.000            
       2.135        1029.200                   2.135           4.980            
       2.140        1020.900                   2.140           0.000            
       2.145        1029.200                   2.145           4.980            
       2.150        1025.050                   2.150           4.980            
       2.155        1025.050                   2.155           2.460            
       2.160        1020.900                   2.160           4.980            
       2.165        1020.900                   2.165           7.500            
       2.170        1020.900                   2.170           7.500            
       2.175        1026.720                   2.175          10.000            
       2.180        1018.440                   2.180           2.500            
       2.185        1018.440                   2.185           5.000            
       2.190        1026.720                   2.190           2.500            
       2.195        1018.440                   2.195          12.500            
       2.200        1026.720                   2.200           5.000            
       2.205        1022.580                   2.205           5.000            
       2.210        1018.440                   2.210           5.000            
       2.215        1026.720                   2.215           5.000            
       2.220        1030.860                   2.220           5.000            
       2.225        1018.440                   2.225           2.500            
       2.230        1030.860                   2.230           2.500            
       2.235        1030.860                   2.235           2.500            
       2.240        1035.000                   2.240           5.000            
       2.245        1030.860                   2.245           0.000            
       2.250        1047.500                   2.250          12.500            
       2.255        1034.930                   2.255          10.000            
       2.260        1034.930                   2.260           5.000            
       2.265        1039.120                   2.265           2.500            
       2.270        1034.930                   2.270           5.000            
       2.275        1034.930                   2.275           5.000            
       2.280        1039.120                   2.280           5.000            
       2.285        1039.120                   2.285           5.000            
       2.290        1039.120                   2.290           7.500            
       2.295        1039.120                   2.295           7.500            
       2.300        1034.930                   2.300           2.500            
       2.305        1039.120                   2.305           2.500            
       2.310        1047.500                   2.310           5.000            
       2.315        1039.120                   2.315           2.500            
       2.320        1047.500                   2.320           7.500            
       2.325        1052.500                   2.325          12.500            
       2.330        1044.080                   2.330           7.500            
       2.335        1044.080                   2.335           7.500            
       2.340        1039.870                   2.340           2.500            
       2.345        1039.870                   2.345           5.000            
       2.350        1044.080                   2.350           5.000            
       2.355        1044.080                   2.355           2.500            
       2.360        1044.080                   2.360           7.500            
       2.365        1044.080                   2.365           2.500            
       2.370        1044.080                   2.370           7.500            
       2.375        1039.870                   2.375           5.000            
       2.380        1039.870                   2.380           5.000            
       2.385        1044.080                   2.385           5.000            
       2.390        1044.080                   2.390           0.000            
       2.395        1044.080                   2.395           5.000            
       2.400        1047.500                   2.400           9.940            
       2.405        1039.120                   2.405          12.460            
       2.410        1039.120                   2.410           7.490            
       2.415        1039.120                   2.415           7.490            
       2.420        1039.120                   2.420           4.970            
       2.425        1039.120                   2.425          12.460            
       2.430        1034.930                   2.430           7.490            
       2.435        1034.930                   2.435           4.970            
       2.440        1034.930                   2.440           7.490            
       2.445        1034.930                   2.445           2.450            
       2.450        1039.120                   2.450           4.970            
       2.455        1039.120                   2.455          17.500            
       2.460        1039.120                   2.460           9.940            
       2.465        1034.930                   2.465           2.450            
       2.470        1034.930                   2.470           9.940            
       2.475        1042.500                   2.475          12.480            
       2.480        1029.990                   2.480           2.460            
       2.485        1029.990                   2.485           7.500            
       2.490        1025.820                   2.490           2.460            
       2.495        1025.820                   2.495           4.980            
       2.500        1025.820                   2.500           0.000            
       2.505        1029.990                   2.505           2.460            
       2.510        1034.160                   2.510          15.000            
       2.515        1034.160                   2.515           7.500            
       2.520        1034.160                   2.520           4.980            
       2.525        1042.500                   2.525           9.960            
       2.530        1034.160                   2.530           7.500            
       2.535        1038.330                   2.535           7.500            
       2.540        1038.330                   2.540           7.500            
       2.545        1034.160                   2.545           4.980            
       2.550        1050.000                   2.550          15.000            
       2.555        1033.200                   2.555           7.500            
       2.560        1037.400                   2.560           9.960            
       2.565        1037.400                   2.565           4.980            
       2.570        1033.200                   2.570           7.500            
       2.575        1037.400                   2.575           9.960            
       2.580        1037.400                   2.580           0.000            
       2.585        1037.400                   2.585           4.980            
       2.590        1037.400                   2.590           7.500            
       2.595        1050.000                   2.595           4.980            
       2.600        1045.800                   2.600           4.980            
       2.605        1041.600                   2.605           7.500            
       2.610        1045.800                   2.610          12.480            
       2.615        1041.600                   2.615           7.500            
       2.620        1045.800                   2.620           4.980            
       2.625        1048.290                   2.625          12.500            
       2.630        1044.080                   2.630           7.500            
       2.635        1044.080                   2.635           5.000            
       2.640        1052.500                   2.640           7.500            
       2.645        1048.290                   2.645           5.000            
       2.650        1048.290                   2.650           5.000            
       2.655        1044.080                   2.655           7.500            
       2.660        1052.500                   2.660           5.000            
       2.665        1052.500                   2.665           2.500            
       2.670        1044.080                   2.670          10.000            
       2.675        1044.080                   2.675           5.000            
       2.680        1048.290                   2.680           2.500            
       2.685        1048.290                   2.685           5.000            
       2.690        1048.290                   2.690           7.500            
       2.695        1044.080                   2.695           5.000            
       2.700        1043.310                   2.700          15.000            
       2.705        1039.120                   2.705           7.500            
       2.710        1043.310                   2.710           2.460            
       2.715        1043.310                   2.715           4.980            
       2.720        1043.310                   2.720           2.460            
       2.725        1039.120                   2.725           7.500            
       2.730        1047.500                   2.730           4.980            
       2.735        1039.120                   2.735           0.000            
       2.740        1034.930                   2.740           7.500            
       2.745        1034.930                   2.745           7.500            
       2.750        1034.930                   2.750           2.460            
       2.755        1026.550                   2.755           7.500            
       2.760        1030.740                   2.760           7.500            
       2.765        1030.740                   2.765           7.500            
       2.770        1026.550                   2.770           2.460            
       2.775        1035.000                   2.775          15.000            
       2.780        1022.580                   2.780           7.500            
       2.785        1018.440                   2.785           4.980            
       2.790        1026.720                   2.790           0.000            
       2.795        1022.580                   2.795           4.980            
       2.800        1018.440                   2.800           4.980            
       2.805        1018.440                   2.805           4.980            
       2.810        1018.440                   2.810           7.500            
       2.815        1014.300                   2.815           7.500            
       2.820        1018.440                   2.820           2.460            
       2.825        1018.440                   2.825           2.460            
       2.830        1014.300                   2.830           4.980            
       2.835        1014.300                   2.835           4.980            
       2.840        1014.300                   2.840           2.460            
       2.845        1014.300                   2.845           9.960            
       2.850        1017.500                   2.850           7.500            
       2.855        1009.360                   2.855          12.500            
       2.860        1005.290                   2.860           7.500            
       2.865        1009.360                   2.865           7.500            
       2.870        1009.360                   2.870           2.500            
       2.875        1009.360                   2.875           7.500            
       2.880         997.150                   2.880           7.500            
       2.885        1009.360                   2.885           7.500            
       2.890         997.150                   2.890           0.000            
       2.895         997.150                   2.895           2.500            
       2.900        1001.220                   2.900          10.000            
       2.905         997.150                   2.905           5.000            
       2.910         997.150                   2.910           7.500            
       2.915         997.150                   2.915           5.000            
       2.920        1001.220                   2.920           7.500            
       2.925        1006.950                   2.925          10.000            
       2.930        1006.950                   2.930           2.500            
       2.935        1002.840                   2.935           0.000            
       2.940        1006.950                   2.940           0.000            
       2.945        1011.060                   2.945           5.000            
       2.950        1006.950                   2.950           2.500            
       2.955        1019.280                   2.955           2.500            
       2.960        1019.280                   2.960           2.500            
       2.965        1011.060                   2.965          12.500            
       2.970        1015.170                   2.970           5.000            
       2.975        1019.280                   2.975           2.500            
       2.980        1023.390                   2.980           2.500            
       2.985        1019.280                   2.985           2.500            
       2.990        1023.390                   2.990           2.500            
       2.995        1027.500                   2.995           7.500            
       3.000        1034.280                   3.000           7.500            
       3.005        1034.280                   3.005           7.500            
       3.010        1038.700                   3.010           0.000            
       3.015        1047.540                   3.015           2.490            
       3.020        1047.540                   3.020           4.980            
       3.025        1056.380                   3.025           2.490            
       3.030        1060.800                   3.030           0.000            
       3.035        1060.800                   3.035           2.490            
       3.040        1069.640                   3.040           4.980            
       3.045        1069.640                   3.045           4.980            
       3.050        1078.480                   3.050           4.980            
       3.055        1087.320                   3.055           4.980            
       3.060        1091.740                   3.060           2.490            
       3.065        1096.160                   3.065           2.490            
       3.070        1105.000                   3.070           7.500            
       3.075        1110.000                   3.075           7.500            
       3.080        1115.000                   3.080           7.500            
       3.085        1130.000                   3.085           4.980            
       3.090        1135.000                   3.090           7.500            
       3.095        1140.000                   3.095           2.490            
       3.100        1140.000                   3.100           0.000            
       3.105        1150.000                   3.105           2.490            
       3.110        1160.000                   3.110           4.980            
       3.115        1180.000                   3.115           4.980            
       3.120        1180.000                   3.120           2.490            
       3.125        1190.000                   3.125           2.490            
       3.130        1200.000                   3.130           0.000            
       3.135        1220.000                   3.135           2.490            
       3.140        1230.000                   3.140           2.490            
       3.145        1250.000                   3.145           2.490            
       3.150        1259.950                   3.150           2.480            
       3.155        1276.900                   3.155          10.000            
       3.160        1282.550                   3.160           7.480            
       3.165        1299.500                   3.165           0.000            
       3.170        1310.800                   3.170           2.480            
       3.175        1322.100                   3.175           5.000            
       3.180        1327.750                   3.180           0.000            
       3.185        1344.700                   3.185           2.480            
       3.190        1356.000                   3.190           5.000            
       3.195        1367.300                   3.195           2.480            
       3.200        1378.600                   3.200           5.000            
       3.205        1389.900                   3.205           0.000            
       3.210        1406.850                   3.210           7.480            
       3.215        1406.850                   3.215           0.000            
       3.220        1412.500                   3.220           2.480            
       3.225        1419.300                   3.225           7.480            
       3.230        1419.300                   3.230           5.000            
       3.235        1413.600                   3.235           0.000            
       3.240        1425.000                   3.240          10.000            
       3.245        1413.600                   3.245           5.000            
       3.250        1413.600                   3.250           0.000            
       3.255        1413.600                   3.255           0.000            
       3.260        1402.200                   3.260           0.000            
       3.265        1390.800                   3.265           2.480            
       3.270        1396.500                   3.270           0.000            
       3.275        1385.100                   3.275           0.000            
       3.280        1379.400                   3.280           0.000            
       3.285        1362.300                   3.285           0.000            
       3.290        1345.200                   3.290           2.480            
       3.295        1333.800                   3.295           0.000            
       3.300        1332.500                   3.300           7.500            
       3.305        1300.520                   3.305           2.490            
       3.310        1284.530                   3.310           0.000            
       3.315        1268.540                   3.315           0.000            
       3.320        1252.550                   3.320           0.000            
       3.325        1236.560                   3.325           0.000            
       3.330        1209.910                   3.330           0.000            
       3.335        1193.920                   3.335           4.980            
       3.340        1167.270                   3.340           0.000            
       3.345        1135.290                   3.345           0.000            
       3.350        1108.640                   3.350           0.000            
       3.355        1087.320                   3.355           0.000            
       3.360        1055.340                   3.360           0.000            
       3.365        1018.030                   3.365           2.490            
       3.370         980.720                   3.370           0.000            
       3.375         957.500                   3.375           7.500            
       3.380         907.710                   3.380           0.000            
       3.385         884.730                   3.385           0.000            
       3.390         834.940                   3.390           0.000            
       3.395         796.640                   3.395           0.000            
       3.400         739.190                   3.400           0.000            
       3.405         674.080                   3.405           0.000            
       3.410         608.970                   3.410           0.000            
       3.415         532.370                   3.415           0.000            
       3.420         459.600                   3.420           0.000            
       3.425         375.340                   3.425           0.000            
       3.430         306.400                   3.430           0.000            
       3.435         241.290                   3.435           2.490            
       3.440         180.010                   3.440           0.000            
       3.445         134.050                   3.445           0.000            
       3.450         100.000                   3.450           2.500            
       3.455          72.400                   3.455           2.500            
       3.460          22.400                   3.460           0.000            
       3.465          20.000                   3.465           0.000            
       3.470          20.000                   3.470           2.500            
       3.475          20.000                   3.475           0.000            
       3.480          14.800                   3.480           0.000            
       3.485           7.200                   3.485           0.000            
       3.490           4.800                   3.490           2.500            
       3.495          10.000                   3.495           0.000            
       3.500           4.800                   3.500           0.000            
       3.505          14.800                   3.505           2.500            
       3.510           7.200                   3.510           0.000            
       3.515          10.000                   3.515           0.000            
       3.520           0.000                   3.520           2.500            
       3.525           7.500                   3.525           7.500            
       3.530           0.000                   3.530           0.000            
       3.535           0.000                   3.535           7.500            
       3.540           0.000                   3.540           0.000            
       3.545           0.000                   3.545           2.490            
       3.550           0.000                   3.550           0.000            
       3.555           0.000                   3.555           2.490            
       3.560           0.000                   3.560           0.000            
       3.565           0.000                   3.565           0.000            
       3.570           0.000                   3.570           2.490            
       3.575           0.000                   3.575           2.490            
       3.580           0.000                   3.580           7.500            
       3.585           0.000                   3.585           0.000            
       3.590           0.000                   3.590           4.980            
       3.595           0.000                   3.595           4.980            
       3.600           0.000                   3.600           9.990            
       3.605           0.000                   3.605          12.420            
       3.610           0.000                   3.610           2.430            
       3.615           0.000                   3.615           4.950            
       3.620           0.000                   3.620          12.420            
       3.625           0.000                   3.625          12.420            
       3.630           0.000                   3.630           9.990            
       3.635           0.000                   3.635           7.470            
       3.640           0.000                   3.640          17.460            
       3.645           0.000                   3.645          17.460            
       3.650           0.000                   3.650          19.980            
       3.655          80.600                   3.655          22.500            
       3.660         419.120                   3.660          17.460            
       3.665         838.240                   3.665          17.460            
       3.670        1007.500                   3.670          19.980            
       3.675         809.360                   3.675          27.500            
       3.680         857.680                   3.680          22.440            
       3.685        1014.720                   3.685          22.440            
       3.690        1244.240                   3.690          17.490            
       3.695        1594.560                   3.695          22.440            
       3.700        2041.520                   3.700          22.440            
       3.705        2488.480                   3.705          19.910            
       3.710        2875.040                   3.710          24.970            
       3.715        3020.000                   3.715          19.910            
       3.720        2923.360                   3.720          24.970            
       3.725        2766.320                   3.725          14.960            
       3.730        2573.040                   3.730          14.960            
       3.735        2416.000                   3.735          19.910            
       3.740        2295.200                   3.740          14.960            
       3.745        2222.720                   3.745          17.490            
       3.750        2172.500                   3.750          22.500            
       3.755        2120.360                   3.755          12.420            
       3.760        2059.530                   3.760           9.990            
       3.765        1963.940                   3.765          17.460            
       3.770        1885.730                   3.770           9.990            
       3.775        1816.210                   3.775           7.470            
       3.780        1781.450                   3.780           9.990            
       3.785        1703.240                   3.785           4.950            
       3.790        1642.410                   3.790           2.430            
       3.795        1590.270                   3.795           4.950            
       3.800        1529.440                   3.800           4.950            
       3.805        1485.990                   3.805           4.950            
       3.810        1442.540                   3.810           2.430            
       3.815        1433.850                   3.815           7.470            
       3.820        1433.850                   3.820           2.430            
       3.825        1457.340                   3.825          10.000            
       3.830        1457.340                   3.830           5.000            
       3.835        1464.150                   3.835           2.500            
       3.840        1484.580                   3.840           7.500            
       3.845        1511.820                   3.845           5.000            
       3.850        1539.060                   3.850           7.500            
       3.855        1566.300                   3.855           5.000            
       3.860        1586.730                   3.860           7.500            
       3.865        1607.160                   3.865          12.500            
       3.870        1634.400                   3.870          10.000            
       3.875        1654.830                   3.875           0.000            
       3.880        1668.450                   3.880           5.000            
       3.885        1682.070                   3.885           5.000            
       3.890        1688.880                   3.890           5.000            
       3.895        1702.500                   3.895           5.000            
       3.900        1705.560                   3.900          12.500            
       3.905        1705.560                   3.905          10.000            
       3.910        1726.530                   3.910           0.000            
       3.915        1740.510                   3.915           2.500            
       3.920        1747.500                   3.920           2.500            
       3.925        1740.510                   3.925           5.000            
       3.930        1719.540                   3.930           2.500            
       3.935        1698.570                   3.935           2.500            
       3.940        1656.630                   3.940           2.500            
       3.945        1614.690                   3.945           5.000            
       3.950        1579.740                   3.950           0.000            
       3.955        1537.800                   3.955           2.500            
       3.960        1516.830                   3.960           2.500            
       3.965        1502.850                   3.965           5.000            
       3.970        1474.890                   3.970           0.000            
       3.975        1470.000                   3.975          10.000            
       3.980        1452.360                   3.980           5.000            
       3.985        1446.480                   3.985           0.000            
       3.990        1446.480                   3.990           2.480            
       3.995        1434.720                   3.995           2.480            
       4.000        1434.720                   4.000           0.000            
       4.005        1434.720                   4.005           0.000            
       4.010        1428.840                   4.010           0.000            
       4.015        1422.960                   4.015           0.000            
       4.020        1405.320                   4.020           0.000            
       4.025        1399.440                   4.025           2.480            
       4.030        1387.680                   4.030           0.000            
       4.035        1370.040                   4.035           0.000            
       4.040        1358.280                   4.040           0.000            
       4.045        1346.520                   4.045           2.480            
       4.050        1350.000                   4.050           5.000            
       4.055        1323.000                   4.055           7.480            
       4.060        1333.800                   4.060           5.000            
       4.065        1328.400                   4.065           0.000            
       4.070        1312.200                   4.070           0.000            
       4.075        1317.600                   4.075          10.000            
       4.080        1306.800                   4.080           0.000            
       4.085        1296.000                   4.085           0.000            
       4.090        1290.600                   4.090           0.000            
       4.095        1285.200                   4.095           0.000            
       4.100        1274.400                   4.100           0.000            
       4.105        1269.000                   4.105           0.000            
       4.110        1252.800                   4.110           0.000            
       4.115        1247.400                   4.115           0.000            
       4.120        1236.600                   4.120           2.480            
       4.125        1235.000                   4.125           7.500            
       4.130        1220.180                   4.130           4.980            
       4.135        1210.300                   4.135           0.000            
       4.140        1215.240                   4.140           0.000            
       4.145        1215.240                   4.145           0.000            
       4.150        1215.240                   4.150           0.000            
       4.155        1210.300                   4.155           0.000            
       4.160        1200.420                   4.160           2.490            
       4.165        1195.480                   4.165           0.000            
       4.170        1200.420                   4.170           2.490            
       4.175        1200.420                   4.175           0.000            
       4.180        1195.480                   4.180           0.000            
       4.185        1195.480                   4.185           2.490            
       4.190        1190.540                   4.190           0.000            
       4.195        1200.420                   4.195           0.000            
       4.200        1187.500                   4.200           2.490            
       4.205        1178.000                   4.205           0.000            
       4.210        1173.250                   4.210           2.490            
       4.215        1168.500                   4.215           2.490            
       4.220        1163.750                   4.220           0.000            
       4.225        1154.250                   4.225           0.000            
       4.230        1149.500                   4.230           7.500            
       4.235        1149.500                   4.235           0.000            
       4.240        1144.750                   4.240           2.490            
       4.245        1140.000                   4.245           0.000            
       4.250        1140.000                   4.250           0.000            
       4.255        1135.250                   4.255           2.490            
       4.260        1130.500                   4.260           4.980            
       4.265        1125.750                   4.265           0.000            
       4.270        1121.000                   4.270           0.000            
       4.275        1122.500                   4.275           2.500            
       4.280        1109.030                   4.280           5.000            
       4.285        1104.540                   4.285           0.000            
       4.290        1100.050                   4.290           2.500            
       4.295        1086.580                   4.295           5.000            
       4.300        1082.090                   4.300           0.000            
       4.305        1073.110                   4.305           0.000            
       4.310        1068.620                   4.310           0.000            
       4.315        1059.640                   4.315           0.000            
       4.320        1050.660                   4.320           2.500            
       4.325        1046.170                   4.325           2.500            
       4.330        1037.190                   4.330           0.000            
       4.335        1032.700                   4.335           0.000            
       4.340        1023.720                   4.340           0.000            
       4.345        1014.740                   4.345           0.000            
       4.350        1020.000                   4.350           5.000            
       4.355        1003.680                   4.355           2.500            
       4.360         999.600                   4.360           2.500            
       4.365         999.600                   4.365           0.000            
       4.370         987.360                   4.370           0.000            
       4.375         983.280                   4.375           0.000            
       4.380         971.040                   4.380           0.000            
       4.385         979.200                   4.385           0.000            
       4.390         971.040                   4.390           2.500            
       4.395         971.040                   4.395           0.000            
       4.400         966.960                   4.400           0.000            
       4.405         966.960                   4.405           5.000            
       4.410         966.960                   4.410           0.000            
       4.415         962.880                   4.415           5.000            
       4.420         954.720                   4.420           0.000            
       4.425         965.000                   4.425           5.000            
       4.430         953.420                   4.430           2.500            
       4.435         953.420                   4.435           0.000            
       4.440         949.560                   4.440           0.000            
       4.445         949.560                   4.445           0.000            
       4.450         941.840                   4.450           0.000            
       4.455         941.840                   4.455           2.500            
       4.460         934.120                   4.460           0.000            
       4.465         934.120                   4.465           0.000            
       4.470         934.120                   4.470           2.500            
       4.475         930.260                   4.475           0.000            
       4.480         926.400                   4.480           0.000            
       4.485         926.400                   4.485           2.500            
       4.490         914.820                   4.490           2.500            
       4.495         907.100                   4.495           0.000            
       4.500         907.500                   4.500           7.500            
       4.505         900.240                   4.505           2.490            
       4.510         874.830                   4.510           0.000            
       4.515         874.830                   4.515           0.000            
       4.520         856.680                   4.520           0.000            
       4.525         842.160                   4.525           0.000            
       4.530         831.270                   4.530           0.000            
       4.535         824.010                   4.535           4.980            
       4.540         809.490                   4.540           0.000            
       4.545         794.970                   4.545           0.000            
       4.550         791.340                   4.550           0.000            
       4.555         787.710                   4.555           0.000            
       4.560         776.820                   4.560           2.490            
       4.565         762.300                   4.565           0.000            
       4.570         755.040                   4.570           0.000            
       4.575         755.000                   4.575           7.500            
       4.580         745.940                   4.580           0.000            
       4.585         739.900                   4.585           2.490            
       4.590         733.860                   4.590           0.000            
       4.595         733.860                   4.595           0.000            
       4.600         730.840                   4.600           0.000            
       4.605         730.840                   4.605           0.000            
       4.610         721.780                   4.610           0.000            
       4.615         733.860                   4.615           2.490            
       4.620         724.800                   4.620           0.000            
       4.625         724.800                   4.625           0.000            
       4.630         724.800                   4.630           0.000            
       4.635         724.800                   4.635           0.000            
       4.640         727.820                   4.640           0.000            
       4.645         733.860                   4.645           0.000            
       4.650         743.040                   4.650           5.000            
       4.655         739.600                   4.655           0.000            
       4.660         753.360                   4.660           0.000            
       4.665         753.360                   4.665           0.000            
       4.670         763.680                   4.670           0.000            
       4.675         760.240                   4.675           5.000            
       4.680         777.440                   4.680           0.000            
       4.685         780.880                   4.685           0.000            
       4.690         787.760                   4.690           0.000            
       4.695         801.520                   4.695           0.000            
       4.700         811.840                   4.700           0.000            
       4.705         822.160                   4.705           5.000            
       4.710         832.480                   4.710           0.000            
       4.715         842.800                   4.715           0.000            
       4.720         860.000                   4.720           0.000            
       4.725         871.360                   4.725           7.500            
       4.730         879.140                   4.730           2.490            
       4.735         902.480                   4.735           0.000            
       4.740         902.480                   4.740           0.000            
       4.745         906.370                   4.745           0.000            
       4.750         921.930                   4.750           0.000            
       4.755         933.600                   4.755           0.000            
       4.760         941.380                   4.760           0.000            
       4.765         941.380                   4.765           0.000            
       4.770         949.160                   4.770           0.000            
       4.775         956.940                   4.775           0.000            
       4.780         964.720                   4.780           0.000            
       4.785         972.500                   4.785           0.000            
       4.790         972.500                   4.790           0.000            
       4.795         972.500                   4.795           0.000            
       4.800         980.000                   4.800           5.000            
       4.805         968.240                   4.805           5.000            
       4.810         968.240                   4.810           0.000            
       4.815         964.320                   4.815           2.480            
       4.820         964.320                   4.820           0.000            
       4.825         956.480                   4.825           2.480            
       4.830         956.480                   4.830           5.000            
       4.835         948.640                   4.835           2.480            
       4.840         944.720                   4.840           2.480            
       4.845         948.640                   4.845           2.480            
       4.850         940.800                   4.850          10.000            
       4.855         936.880                   4.855           2.480            
       4.860         936.880                   4.860           0.000            
       4.865         929.040                   4.865           5.000            
       4.870         929.040                   4.870           0.000            
       4.875         930.000                   4.875           7.480            
       4.880         918.840                   4.880           5.000            
       4.885         918.840                   4.885           2.480            
       4.890         918.840                   4.890           0.000            
       4.895         911.400                   4.895           0.000            
       4.900         911.400                   4.900           0.000            
       4.905         907.680                   4.905           2.480            
       4.910         911.400                   4.910           2.480            
       4.915         911.400                   4.915           2.480            
       4.920         911.400                   4.920           0.000            
       4.925         918.840                   4.925           5.000            
       4.930         911.400                   4.930           5.000            
       4.935         915.120                   4.935           0.000            
       4.940         915.120                   4.940          10.000            
       4.945         918.840                   4.945           0.000            
       4.950         929.710                   4.950          12.500            
       4.955         929.710                   4.955           7.500            
       4.960         929.710                   4.960           2.500            
       4.965         929.710                   4.965           0.000            
       4.970         933.600                   4.970           5.000            
       4.975         937.490                   4.975           2.500            
       4.980         949.160                   4.980           5.000            
       4.985         949.160                   4.985           5.000            
       4.990         949.160                   4.990           2.500            
       4.995         949.160                   4.995           5.000            
       5.000         960.830                   5.000          10.000            
       5.005         956.940                   5.005          10.000            
       5.010         964.720                   5.010          10.000            
       5.015         972.500                   5.015           5.000            
       5.020         964.720                   5.020           7.500            
       5.025         974.160                   5.025          12.500            
       5.030         974.160                   5.030          10.000            
       5.035         974.160                   5.035          12.500            
       5.040         974.160                   5.040           7.500            
       5.045         982.080                   5.045           2.500            
       5.050         982.080                   5.050           5.000            
       5.055         982.080                   5.055          10.000            
       5.060         982.080                   5.060           5.000            
       5.065         990.000                   5.065           7.500            
       5.070         982.080                   5.070           5.000            
       5.075         982.080                   5.075           5.000            
       5.080         974.160                   5.080           0.000            
       5.085         974.160                   5.085           2.500            
       5.090         978.120                   5.090           0.000            
       5.095         982.080                   5.095           2.500            
       5.100         978.570                   5.100           2.500            
       5.105         982.500                   5.105           2.500            
       5.110         974.640                   5.110           2.500            
       5.115         974.640                   5.115           2.500            
       5.120         974.640                   5.120           5.000            
       5.125         966.780                   5.125           5.000            
       5.130         966.780                   5.130           0.000            
       5.135         970.710                   5.135           2.500            
       5.140         966.780                   5.140           0.000            
       5.145         974.640                   5.145           0.000            
       5.150         966.780                   5.150           0.000            
       5.155         962.850                   5.155           5.000            
       5.160         966.780                   5.160           0.000            
       5.165         962.850                   5.165           0.000            
       5.170         958.920                   5.170           0.000            
       5.175         967.500                   5.175           7.500            
       5.180         955.890                   5.180           0.000            
       5.185         952.020                   5.185           0.000            
       5.190         959.760                   5.190           0.000            
       5.195         952.020                   5.195           0.000            
       5.200         952.020                   5.200           2.490            
       5.205         944.280                   5.205           0.000            
       5.210         952.020                   5.210           2.490            
       5.215         948.150                   5.215           7.500            
       5.220         944.280                   5.220           0.000            
       5.225         944.280                   5.225           0.000            
       5.230         944.280                   5.230           0.000            
       5.235         944.280                   5.235           0.000            
       5.240         948.150                   5.240           0.000            
       5.245         955.890                   5.245           0.000            
       5.250         954.800                   5.250           2.500            
       5.255         943.250                   5.255           0.000            
       5.260         947.100                   5.260           0.000            
       5.265         943.250                   5.265           0.000            
       5.270         939.400                   5.270           0.000            
       5.275         943.250                   5.275           0.000            
       5.280         943.250                   5.280           0.000            
       5.285         943.250                   5.285           0.000            
       5.290         939.400                   5.290           0.000            
       5.295         943.250                   5.295           0.000            
       5.300         950.950                   5.300           0.000            
       5.305         950.950                   5.305           0.000            
       5.310         954.800                   5.310           0.000            
       5.315         954.800                   5.315           0.000            
       5.320         962.500                   5.320           0.000            
       5.325         968.240                   5.325           5.000            
       5.330         964.320                   5.330           0.000            
       5.335         964.320                   5.335           0.000            
       5.340         960.400                   5.340           0.000            
       5.345         972.160                   5.345           0.000            
       5.350         972.160                   5.350           0.000            
       5.355         972.160                   5.355           0.000            
       5.360         972.160                   5.360           0.000            
       5.365         972.160                   5.365           0.000            
       5.370         976.080                   5.370           2.500            
       5.375         972.160                   5.375           0.000            
       5.380         976.080                   5.380           0.000            
       5.385         972.160                   5.385           0.000            
       5.390         972.160                   5.390           0.000            
       5.395         980.000                   5.395           0.000            
       5.400         990.000                   5.400           2.500            
       5.405         974.160                   5.405           0.000            
       5.410         986.040                   5.410           0.000            
       5.415         982.080                   5.415           0.000            
       5.420         982.080                   5.420           0.000            
       5.425         986.040                   5.425           0.000            
       5.430         974.160                   5.430           0.000            
       5.435         982.080                   5.435           0.000            
       5.440         986.040                   5.440           0.000            
       5.445         990.000                   5.445           0.000            
       5.450         982.080                   5.450           0.000            
       5.455         982.080                   5.455           0.000            
       5.460         986.040                   5.460           0.000            
       5.465         982.080                   5.465           0.000            
       5.470         986.040                   5.470           0.000            
       5.475         992.500                   5.475           0.000            
       5.480         984.560                   5.480           0.000            
       5.485         984.560                   5.485           2.500            
       5.490         988.530                   5.490           0.000            
       5.495         984.560                   5.495           2.500            
       5.500         984.560                   5.500           2.500            
       5.505         976.620                   5.505           0.000            
       5.510         984.560                   5.510           0.000            
       5.515         984.560                   5.515           2.500            
       5.520         976.620                   5.520           0.000            
       5.525         976.620                   5.525           0.000            
       5.530         972.650                   5.530           0.000            
       5.535         972.650                   5.535           0.000            
       5.540         976.620                   5.540           0.000            
       5.545         976.620                   5.545           0.000            
       5.550         982.500                   5.550           7.500            
       5.555         966.780                   5.555           4.980            
       5.560         974.640                   5.560           0.000            
       5.565         970.710                   5.565           2.490            
       5.570         970.710                   5.570           0.000            
       5.575         966.780                   5.575           0.000            
       5.580         958.920                   5.580           2.490            
       5.585         958.920                   5.585           4.980            
       5.590         954.990                   5.590           0.000            
       5.595         954.990                   5.595           0.000            
       5.600         947.130                   5.600           0.000            
       5.605         954.990                   5.605           7.500            
       5.610         943.200                   5.610           0.000            
       5.615         947.130                   5.615           0.000            
       5.620         939.270                   5.620           0.000            
       5.625         945.000                   5.625           7.500            
       5.630         929.880                   5.630           0.000            
       5.635         937.440                   5.635           0.000            
       5.640         933.660                   5.640           2.490            
       5.645         933.660                   5.645           2.490            
       5.650         929.880                   5.650           0.000            
       5.655         929.880                   5.655           0.000            
       5.660         926.100                   5.660           0.000            
       5.665         922.320                   5.665           2.490            
       5.670         922.320                   5.670           2.490            
       5.675         922.320                   5.675           0.000            
       5.680         922.320                   5.680           4.980            
       5.685         914.760                   5.685           4.980            
       5.690         914.760                   5.690           4.980            
       5.695         914.760                   5.695           7.500            
       5.700         920.000                   5.700          14.040            
       5.705         912.640                   5.705          14.040            
       5.710         908.960                   5.710          21.600            
       5.715         908.960                   5.715          24.840            
       5.720         908.960                   5.720          34.560            
       5.725         908.960                   5.725          46.440            
       5.730         901.600                   5.730          61.560            
       5.735         897.920                   5.735          74.520            
       5.740         894.240                   5.740          97.200            
       5.745         894.240                   5.745         124.200            
       5.750         886.880                   5.750         149.040            
       5.755         879.520                   5.755         179.280            
       5.760         875.840                   5.760         207.360            
       5.765         868.480                   5.765         241.920            
       5.770         861.120                   5.770         270.000            
       5.775         865.000                   5.775         304.720            
       5.780         847.700                   5.780         325.230            
       5.785         847.700                   5.785         360.390            
       5.790         837.320                   5.790         392.620            
       5.795         823.480                   5.795         424.850            
       5.800         816.560                   5.800         451.220            
       5.805         799.260                   5.805         486.380            
       5.810         781.960                   5.810         509.820            
       5.815         771.580                   5.815         547.910            
       5.820         754.280                   5.820         577.210            
       5.825         743.900                   5.825         609.440            
       5.830         726.600                   5.830         635.810            
       5.835         705.840                   5.835         668.040            
       5.840         685.080                   5.840         694.410            
       5.845         664.320                   5.845         732.500            
       5.850         657.500                   5.850         753.610            
       5.855         628.570                   5.855         781.820            
       5.860         610.160                   5.860         789.880            
       5.865         589.120                   5.865         814.060            
       5.870         573.340                   5.870         838.240            
       5.875         554.930                   5.875         858.390            
       5.880         526.000                   5.880         874.510            
       5.885         512.850                   5.885         894.660            
       5.890         491.810                   5.890         906.750            
       5.895         465.510                   5.895         930.930            
       5.900         441.840                   5.900         947.050            
       5.905         418.170                   5.905         963.170            
       5.910         397.130                   5.910         979.290            
       5.915         373.460                   5.915         995.410            
       5.920         347.160                   5.920        1007.500            
       5.925         335.000                   5.925        1016.960            
       5.930         306.860                   5.930        1026.040            
       5.935         281.400                   5.935        1044.200            
       5.940         259.960                   5.940        1044.200            
       5.945         237.180                   5.945        1062.360            
       5.950         217.080                   5.950        1071.440            
       5.955         196.980                   5.955        1080.520            
       5.960         171.520                   5.960        1085.060            
       5.965         156.780                   5.965        1094.140            
       5.970         144.720                   5.970        1098.680            
       5.975         119.260                   5.975        1112.300            
       5.980          96.480                   5.980        1116.840            
       5.985          81.740                   5.985        1116.840            
       5.990          69.680                   5.990        1121.380            
       5.995          29.480                   5.995        1135.000            
       6.000          20.000                   6.000        1142.500            
       6.005          12.480                   6.005        1133.360            
       6.010           0.000                   6.010        1133.360            
       6.015           0.000                   6.015        1128.790            
       6.020           0.000                   6.020        1133.360            
       6.025           0.000                   6.025        1142.500            
       6.030           0.000                   6.030        1137.930            
       6.035           0.000                   6.035        1133.360            
       6.040           0.000                   6.040        1133.360            
       6.045           0.000                   6.045        1133.360            
       6.050           0.000                   6.050        1133.360            
       6.055           0.000                   6.055        1142.500            
       6.060           0.000                   6.060        1137.930            
       6.065           0.000                   6.065        1133.360            
       6.070           0.000                   6.070        1133.360            
       6.075           0.000                   6.075        1145.000            
       6.080           0.000                   6.080        1131.260            
       6.085           0.000                   6.085        1131.260            
       6.090           0.000                   6.090        1126.680            
       6.095           0.000                   6.095        1122.100            
       6.100           0.000                   6.100        1112.940            
       6.105           0.000                   6.105        1112.940            
       6.110           0.000                   6.110        1108.360            
       6.115           0.000                   6.115        1099.200            
       6.120           0.000                   6.120        1094.620            
       6.125           0.000                   6.125        1094.620            
       6.130           0.000                   6.130        1076.300            
       6.135           0.000                   6.135        1076.300            
       6.140           0.000                   6.140        1071.720            
       6.145           0.000                   6.145        1067.140            
       6.150           0.000                   6.150        1065.000            
       6.155           0.000                   6.155        1047.960            
       6.160           0.000                   6.160        1052.220            
       6.165           0.000                   6.165        1043.700            
       6.170           0.000                   6.170        1043.700            
       6.175           0.000                   6.175        1043.700            
       6.180           0.000                   6.180        1039.440            
       6.185           0.000                   6.185        1035.180            
       6.190           0.000                   6.190        1035.180            
       6.195           0.000                   6.195        1030.920            
       6.200           0.000                   6.200        1043.700            
       6.205           0.000                   6.205        1039.440            
       6.210           0.000                   6.210        1039.440            
       6.215           0.000                   6.215        1043.700            
       6.220           0.000                   6.220        1043.700            
       6.225           0.000                   6.225        1052.500            
       6.230           0.000                   6.230        1044.080            
       6.235           0.000                   6.235        1039.870            
       6.240           0.000                   6.240        1039.870            
       6.245           0.000                   6.245        1044.080            
       6.250           0.000                   6.250        1044.080            
       6.255           0.000                   6.255        1048.290            
       6.260           0.000                   6.260        1048.290            
       6.265           0.000                   6.265        1048.290            
       6.270           0.000                   6.270        1044.080            
       6.275           0.000                   6.275        1044.080            
       6.280           0.000                   6.280        1044.080            
       6.285           0.000                   6.285        1039.870            
       6.290           0.000                   6.290        1044.080            
       6.295           0.000                   6.295        1044.080            
       6.300           0.000                   6.300        1049.040            
       6.305           0.000                   6.305        1044.810            
       6.310           0.000                   6.310        1036.350            
       6.315           0.000                   6.315        1049.040            
       6.320           0.000                   6.320        1040.580            
       6.325           0.000                   6.325        1044.810            
       6.330           0.000                   6.330        1044.810            
       6.335           0.000                   6.335        1049.040            
       6.340           0.000                   6.340        1044.810            
       6.345           0.000                   6.345        1049.040            
       6.350           0.000                   6.350        1057.500            
       6.355           0.000                   6.355        1053.270            
       6.360           0.000                   6.360        1057.500            
       6.365           0.000                   6.365        1053.270            
       6.370           0.000                   6.370        1053.270            
       6.375           0.000                   6.375        1060.000            
       6.380           0.000                   6.380        1051.520            
       6.385           0.000                   6.385        1051.520            
       6.390           0.000                   6.390        1051.520            
       6.395           0.000                   6.395        1051.520            
       6.400           0.000                   6.400        1051.520            
       6.405           0.000                   6.405        1051.520            
       6.410           0.000                   6.410        1047.280            
       6.415           0.000                   6.415        1051.520            
       6.420           0.000                   6.420        1047.280            
       6.425           0.000                   6.425        1047.280            
       6.430           0.000                   6.430        1043.040            
       6.435           0.000                   6.435        1038.800            
       6.440           0.000                   6.440        1038.800            
       6.445           0.000                   6.445        1026.080            
       6.450           0.000                   6.450        1027.500            
       6.455           0.000                   6.455        1019.280            
       6.460           0.000                   6.460        1019.280            
       6.465           0.000                   6.465        1011.060            
       6.470           0.000                   6.470        1006.950            
       6.475           0.000                   6.475         994.620            
       6.480           0.000                   6.480         986.400            
       6.485           0.000                   6.485         994.620            
       6.490           0.000                   6.490         986.400            
       6.495           0.000                   6.495         982.290            
       6.500           0.000                   6.500         974.070            
       6.505           0.000                   6.505         974.070            
       6.510           0.000                   6.510         974.070            
       6.515           0.000                   6.515         965.850            
       6.520           0.000                   6.520         965.850            
       6.525           0.000                   6.525         970.000            
       6.530           0.000                   6.530         954.480            
       6.535           0.000                   6.535         958.360            
       6.540           0.000                   6.540         954.480            
       6.545           0.000                   6.545         954.480            
       6.550           0.000                   6.550         950.600            
       6.555           0.000                   6.555         954.480            
       6.560           0.000                   6.560         946.720            
       6.565           0.000                   6.565         946.720            
       6.570           0.000                   6.570         938.960            
       6.575           0.000                   6.575         946.720            
       6.580           0.000                   6.580         935.080            
       6.585           0.000                   6.585         946.720            
       6.590           0.000                   6.590         938.960            
       6.595           0.000                   6.595         938.960            
       6.600           0.000                   6.600         940.000            
       6.605           0.000                   6.605         932.480            
       6.610           0.000                   6.610         932.480            
       6.615           0.000                   6.615         924.960            
       6.620           0.000                   6.620         932.480            
       6.625           0.000                   6.625         932.480            
       6.630           0.000                   6.630         924.960            
       6.635           0.000                   6.635         940.000            
       6.640           0.000                   6.640         924.960            
       6.645           0.000                   6.645         917.440            
       6.650           0.000                   6.650         924.960            
       6.655           0.000                   6.655         924.960            
       6.660           0.000                   6.660         917.440            
       6.665           0.000                   6.665         917.440            
       6.670           0.000                   6.670         909.920            
       6.675           0.000                   6.675         920.000            
       6.680           0.000                   6.680         908.960            
       6.685           0.000                   6.685         916.320            
       6.690           0.000                   6.690         912.640            
       6.695           0.000                   6.695         908.960            
       6.700           0.000                   6.700         908.960            
       6.705           0.000                   6.705         908.960            
       6.710           0.000                   6.710         908.960            
       6.715           0.000                   6.715         901.600            
       6.720           0.000                   6.720         901.600            
       6.725           0.000                   6.725         890.560            
       6.730           0.000                   6.730         894.240            
       6.735           0.000                   6.735         886.880            
       6.740           0.000                   6.740         875.840            
       6.745           0.000                   6.745         868.480            
       6.750           0.000                   6.750         877.500            
       6.755           0.000                   6.755         859.950            
       6.760           0.000                   6.760         859.950            
       6.765           0.000                   6.765         852.930            
       6.770           0.000                   6.770         849.420            
       6.775           0.000                   6.775         838.890            
       6.780           0.000                   6.780         842.400            
       6.785           0.000                   6.785         838.890            
       6.790           0.000                   6.790         835.380            
       6.795           0.000                   6.795         835.380            
       6.800           0.000                   6.800         835.380            
       6.805           0.000                   6.805         838.890            
       6.810           0.000                   6.810         831.870            
       6.815           0.000                   6.815         842.400            
       6.820           0.000                   6.820         842.400            
       6.825           0.000                   6.825         846.680            
       6.830           0.000                   6.830         846.680            
       6.835           0.000                   6.835         843.210            
       6.840           0.000                   6.840         850.150            
       6.845           0.000                   6.845         850.150            
       6.850           0.000                   6.850         857.090            
       6.855           0.000                   6.855         857.090            
       6.860           0.000                   6.860         857.090            
       6.865           0.000                   6.865         857.090            
       6.870           0.000                   6.870         864.030            
       6.875           0.000                   6.875         867.500            
       6.880           0.000                   6.880         860.560            
       6.885           0.000                   6.885         864.030            
       6.890           0.000                   6.890         860.560            
       6.895           0.000                   6.895         853.620            
       6.900           0.000                   6.900         862.500            
       6.905           0.000                   6.905         845.250            
       6.910           0.000                   6.910         841.800            
       6.915           0.000                   6.915         824.550            
       6.920           0.000                   6.920         814.200            
       6.925           0.000                   6.925         790.050            
       6.930           0.000                   6.930         776.250            
       6.935           0.000                   6.935         755.550            
       6.940           2.120                   6.940         731.400            
       6.945          24.910                   6.945         714.150            
       6.950          44.520                   6.950         690.000            
       6.955          59.890                   6.955         669.300            
       6.960          77.380                   6.960         641.700            
       6.965          99.640                   6.965         614.100            
       6.970         132.500                   6.970         583.050            
       6.975         170.970                   6.975         562.500            
       6.980         200.160                   6.980         522.000            
       6.985         246.030                   6.985         497.250            
       6.990         279.390                   6.990         472.500            
       6.995         337.770                   6.995         438.750            
       7.000         391.980                   7.000         405.000            
       7.005         454.530                   7.005         378.000            
       7.010         508.740                   7.010         344.250            
       7.015         579.630                   7.015         317.250            
       7.020         654.690                   7.020         288.000            
       7.025         729.750                   7.025         263.250            
       7.030         817.320                   7.030         238.500            
       7.035         896.550                   7.035         216.000            
       7.040         971.610                   7.040         198.000            
       7.045        1042.500                   7.045         180.000            
       7.050        1108.870                   7.050         167.500            
       7.055        1154.860                   7.055         134.670            
       7.060        1195.740                   7.060         109.880            
       7.065        1221.290                   7.065          97.150            
       7.070        1241.730                   7.070          74.370            
       7.075        1257.060                   7.075          64.990            
       7.080        1277.500                   7.080          24.790            
       7.085        1272.390                   7.085           4.690            
       7.090        1277.500                   7.090           0.000            
       7.095        1272.390                   7.095           0.000            
       7.100        1262.170                   7.100           0.000            
       7.105        1246.840                   7.105           0.000            
       7.110        1241.730                   7.110           0.000            
       7.115        1226.400                   7.115           0.000            
       7.120        1216.180                   7.120           0.000            
       7.125        1212.500                   7.125           0.000            
       7.130        1183.400                   7.130           0.000            
       7.135        1178.550                   7.135           0.000            
       7.140        1168.850                   7.140           0.000            
       7.145        1159.150                   7.145           0.000            
       7.150        1139.750                   7.150           0.000            
       7.155        1120.350                   7.155           0.000            
       7.160        1115.500                   7.160           0.000            
       7.165        1100.950                   7.165           0.000            
       7.170        1076.700                   7.170           0.000            
       7.175        1067.000                   7.175           0.000            
       7.180        1042.750                   7.180           0.000            
       7.185        1028.200                   7.185           0.000            
       7.190        1008.800                   7.190           0.000            
       7.195         989.400                   7.195           0.000            
       7.200         980.000                   7.200           0.000            
       7.205         948.640                   7.205           0.000            
       7.210         932.960                   7.210           0.000            
       7.215         921.200                   7.215           0.000            
       7.220         909.440                   7.220           0.000            
       7.225         889.840                   7.225           0.000            
       7.230         882.000                   7.230           0.000            
       7.235         874.160                   7.235           0.000            
       7.240         862.400                   7.240           0.000            
       7.245         862.400                   7.245           0.000            
       7.250         866.320                   7.250           0.000            
       7.255         882.000                   7.255           0.000            
       7.260         874.160                   7.260           0.000            
       7.265         882.000                   7.265           0.000            
       7.270         889.840                   7.270           0.000            
       7.275         898.560                   7.275           0.000            
       7.280         894.720                   7.280           0.000            
       7.285         906.240                   7.285           0.000            
       7.290         910.080                   7.290           0.000            
       7.295         917.760                   7.295           0.000            
       7.300         929.280                   7.300           0.000            
       7.305         925.440                   7.305           0.000            
       7.310         933.120                   7.310           0.000            
       7.315         940.800                   7.315           0.000            
       7.320         944.640                   7.320           0.000            
       7.325         952.320                   7.325           0.000            
       7.330         948.480                   7.330           0.000            
       7.335         952.320                   7.335           0.000            
       7.340         960.000                   7.340           0.000            
       7.345         960.000                   7.345           0.000            
       7.350         966.410                   7.350           0.000            
       7.355         966.410                   7.355           0.000            
       7.360         966.410                   7.360           0.000            
       7.365         966.410                   7.365           0.000            
       7.370         974.430                   7.370           0.000            
       7.375         974.430                   7.375           0.000            
       7.380         978.440                   7.380           0.000            
       7.385         986.460                   7.385           0.000            
       7.390         990.470                   7.390           0.000            
       7.395         994.480                   7.395           0.000            
       7.400         994.480                   7.400           0.000            
       7.405        1002.500                   7.405           0.000            
       7.410         994.480                   7.410           0.000            
       7.415         998.490                   7.415           0.000            
       7.420         994.480                   7.420           0.000            
************.***    ********.**                7.425           0.000            
************.***    ********.**                7.430           0.000            
************.***    ********.**                7.435           0.000            
************.***    ********.**                7.440           0.000            
************.***    ********.**                7.445           0.000            
************.***    ********.**                7.450           0.000            
************.***    ********.**                7.455           0.000            
************.***    ********.**                7.460           0.000            
************.***    ********.**                7.465           0.000            
************.***    ********.**                7.470           0.000            
************.***    ********.**                7.475           0.000            
************.***    ********.**                7.480           0.000            
************.***    ********.**                7.485           0.000            
************.***    ********.**                7.490           0.000            
************.***    ********.**                7.495           0.000            
************.***    ********.**                7.500           0.000            
************.***    ********.**                7.505           0.000            
************.***    ********.**                7.510           0.000            
************.***    ********.**                7.515           0.000            
************.***    ********.**                7.520           0.000            
************.***    ********.**                7.525           0.000            
************.***    ********.**                7.530           0.000            
************.***    ********.**                7.535           0.000            
************.***    ********.**                7.540           0.000            
************.***    ********.**                7.545           0.000            
************.***    ********.**                7.550           0.000            
************.***    ********.**                7.555           0.000            
************.***    ********.**                7.560           5.000            
************.***    ********.**                7.565           0.000            
************.***    ********.**                7.570           0.000            
************.***    ********.**                7.575           5.000            
************.***    ********.**                7.580           0.000            
************.***    ********.**                7.585           0.000            
************.***    ********.**                7.590           2.500            
************.***    ********.**                7.595           0.000            
************.***    ********.**                7.600           0.000            
************.***    ********.**                7.605           0.000            
************.***    ********.**                7.610           0.000            
************.***    ********.**                7.615           0.000            
************.***    ********.**                7.620           5.000            
************.***    ********.**                7.625           0.000            
************.***    ********.**                7.630           0.000            
************.***    ********.**                7.635           0.000            
************.***    ********.**                7.640           0.000            
************.***    ********.**                7.645           0.000            
